24.8251447031899
24.77466684614065
25.820971867007003
25.659846547317187
22.548660654197906
15.678153183472809
7.193027325343213
1.1937003634336047
1.1937003634336047
-0.278233948045103
0.3630367478829507
-1.3972270830465665
-8.195046439624342
-18.681922196796002
-30.107820702656337
-37.613810741691026
-41.722573697672566
-42.47987616098972
-41.720823798625105
-40.98855835240479
-37.75434109570671
-34.160586889215175
-31.65244312827698
-29.338941984115053
-24.609234082654574
-13.59644635887312
4.978058958133453
26.172970790151716
43.437878583937206
53.09732130839242
55.78018575851021
57.829586754601586
63.13649212545123
66.89648674115017
67.51110512855844
59.19141203392827
43.54408399515488
25.836720958401592
11.015749091393127
1.5603715170259755
-3.2221025710047284
-5.027594561852618
-4.009826356172674
-1.6450397092482791
1.1067438417030888
2.3736707497680287
1.0555929465632725
-2.5673711132083836
-3.9119666173137677
-3.3716516354835684
-1.7730515547153227
-1.3330192488864383
-2.3375959079292454
-2.9916543276403145
-1.6292906178524722
-9.422533261735921E-4
-2.2429667519062764
-8.772378516615502
-12.364786646926174
-0.4187643020706986
38.20043074436343
108.09449454836773
208.40018845064486
323.26073495759545
422.425225467779
479.6583658635507
469.9672903486777
393.78758917755965
281.30488625654743
161.11522412165525
61.623233274992515
-16.64611657019162
-73.92300444205175
-103.24202449860513
-97.85031632792843
-63.340422667934085
-15.380804953543581
22.035132588536623
32.00982635618721
23.565217391300518
9.167990308235517
0.3603445954912383
1.282272176609319
0.4253600753838953
0.2501009557195478
-2.505720823799309
-4.538430475169156
-4.321173778438838
-2.50679768474739
-1.8383362498273221
-3.7601292233107086
-7.601426840761374
-9.590389016023654
-7.779243505185004
-3.9563871315092913
-1.2445820433398573
-0.7381881814494846
-1.5151433571153334
-2.070803607486578
-1.5555256427524509
-0.12518508547425264
0.5185085475852289
0.1950464396281964
-0.23744783954876672
-0.07753398842374085
0.10903217122134916
-0.025440839951683045
0.0
0.0
0.0
0.0
0.0
0.0
0.06784223987115479
-0.1974693767674266
-0.040382285638206505
0.4498586620013415
0.11226275407364111
-0.49104859334848955
-1.0414591465895309
1.6427513797245914
8.104993942653653
18.208103378650762
29.59523489029879
38.72109301386828
45.38793915735592
51.39843855161762
58.81316462511431
66.39857315924266
70.337865123171
69.0040382285677
62.38013191546363
54.99892313904611
46.84641270695893
37.672768878723424
25.621214160724612
12.792435051821325
3.184547045357564
-1.5829855969891142
-1.2611387804542629
0.6432898102075265
0.6691344730132457
-0.2976174451481584
-1.0632655808339837
-0.4493202315253196
0.08359133126966611
0.506259254274611
0.5556602503704611
0.5132588504510793
-0.16758648539691867
-0.1199353883438179
-0.21362229101970642
-2.3167317270133503
-6.555660250369869
-10.987346883834293
-14.85368151837547
-17.04711266657828
-17.136895948310205
-16.254812222371154
-14.267061515681606
-11.62309866738619
-7.912370440169149
-3.406784223987152
-0.6303674787968003
-1.1624713958752033
-6.104051689321604
-11.354152645039273
-10.650424013999741
2.6205411226290565
32.93700363439783
90.17647058821312
179.588369901709
293.0434782608527
409.63629021403875
496.11010903221114
524.0382285637728
491.21012249294563
413.0118454704449
312.15291425493604
205.4046305020924
97.62942522547644
2.021941041852748
-61.0384977790051
-79.24781262623127
-52.8951406649712
-7.6714228025085
27.311482029914977
37.79472338136226
27.979539641941557
11.018306636138156
2.4843182123992102
2.805491990844637
7.0166913447316075
12.597657827438344
14.393458069730539
12.146991519721299
7.220891102436434
0.2778301251835795
-5.919235428724857
-11.829452146992915
-15.38605465069579
-16.327365728901704
-16.027459954232288
-16.30636694036583
-18.37717054785049
-22.0158836990178
-25.21173778436092
-26.198546237718386
-24.712881949118223
-21.444608964868124
-16.491990846683294
-10.401938349710747
-4.571409341766779
-0.7143626329225985
0.5467761475305877
0.4280522277554164
-0.22614079957080047
-0.22735226813875808
0.07470722842977785
0.15991385112471526
-0.37878583928011134
0.19948849104832223
0.4704536276767665
0.03190200565608625
-0.8286445012769631
-0.8912370440195702
3.1729707901399538
13.101494144564333
26.012383900931034
37.00538430475852
42.47758783147695
42.464665500066765
40.751110512849145
41.44312828105712
43.03795934849948
43.89823664019784
41.08816799031001
35.554852604657036
28.608830259792963
20.483241351460894
12.32238524700453
5.646520393052974
1.1032440436107207
-0.8197603984400085
-0.4890294790675628
0.32750033652104116
0.203930542468917
-0.04280522277617549
-0.1308386054655492
0.1066092340831435
-0.0747072284293046
0.07026517700938996
-0.1498182797152734
0.05734284560447897
0.06945753129551134
0.14901063400385797
-1.5275272580399082
-4.589446762685782
-7.369632521204163
-6.913581908740756
-3.0741687979557706
1.8746803069079574
5.026652308526567
3.7811280118483124
-0.0025575447599458477
-2.3642482164527108
-2.7096513662696635
-0.7318616233658601
0.31202046036018205
0.3293848431822688
-0.1142818683554921
-0.21887198815489894
-0.8107416879773313
-2.607214968364163
-5.443801319155352
-7.079687710330426
-4.210122492936665
0.3266926908077266
3.547449185630299
2.312693498456837
-2.596177143628052
-6.877507066904577
-8.162606003502784
-6.604926638847952
-3.5120473818794715
-1.5034324942781854
-0.4551083591338776
0.3518643155204354
0.6263292502380782
-0.5400457665885949
-1.4481087629568912
0.2580428052182698
7.043478260864744
18.22694844528072
30.47664557814314
40.12491587024359
45.258850450938716
46.54919908466637
47.499932696186406
49.70897832816953
52.782608695651874
53.84923946695881
48.70090187105024
38.369228698346355
24.667519181584982
10.734419168123285
-1.1072822721789557
-8.276753264236923
-10.460358056268955
-8.077533988426222
-2.929734822990247
1.8470857450577138
3.2091802396065314
0.3937272849652107
-4.143760936873585
-5.767398034731612
-5.500067303809016
-4.592408130298446
-3.4857988962154627
-4.3431148203054395
-1.9212545430104755
-0.46735765243509997
-5.303136357504814
-14.249293309993265
-18.287656481359004
-4.843855162215794
39.372055458318016
119.9084668191949
233.30677076320308
360.0607080360771
464.51083591333855
518.3253466146632
501.62511778170483
418.2471395881058
299.69901736437066
173.95746399245198
60.06191950463412
-25.10916677885674
-70.77587831473839
-73.55014133802071
-43.117243235965276
-4.151702786357283
23.248081841457502
29.48189527528441
19.438955444869382
9.135146049255082
3.1154933369155833
2.0340557275532953
3.1192623502537167
2.7085745053232118
-1.508278368555702
-5.577197469380546
-7.57073630367807
-8.003769013326684
-8.156548660650149
-10.89527527257656
-15.369632521200577
-19.470184412442194
-19.958002422940588
-17.253735361421302
-13.219410418626925
-10.052631578946178
-7.449185623907029
-4.900659577333079
-2.4022075649480876
-0.42078341634012917
0.49306770763338514
0.02665230851968202
-0.038363171355925596
-0.10499394265736944
0.014941445686050214
0.047247274195883066
-0.016960559967788696
0.0
0.0
0.0
0.0
0.0
0.0
0.0
0.0
0.0
0.0
0.05936195988726044
-0.1696055996775379
-0.07228429129180874
0.501144164761071
0.0214026113892698
-0.5605061246455283
-0.645308924485969
1.2421591062012265
7.2362363709753215
15.992058150492344
24.25911966617662
30.19935388343291
33.08601426840673
34.92017768205344
37.41687979539656
38.17620137299943
37.27944541661314
34.06515008749398
30.360479203118864
27.862161798357494
24.485664288602784
18.167586485398175
10.253466146183124
3.4720689190979637
-0.9796742495664952
-1.2958675461037954
0.15587562256208992
0.7931080899187559
0.49791358190940854
-1.9423879391577428
-5.178355094895761
-11.418764302058007
-18.778166644232137
-25.328442589852035
-29.548795261815133
-29.917350922064582
-27.896890564006775
-24.40436128684494
-23.46803069053332
-24.470453627673127
-26.030017498991963
-25.094359940778016
-18.52160452281982
-7.807645712747786
4.626329250238773
15.386727688790117
23.539103513258738
30.475568717189585
35.32763494413785
39.4592811953166
41.74128415667887
45.421860277288346
47.68299905774979
44.466011576263426
34.06003499798641
19.32763494413581
5.725400457658081
-1.9629829048388259
-3.2233140395747033
-1.3511912774214379
-0.9116974020704659
-1.7704940099624182
-2.364652039307685
-1.6620002692130544
-3.1588369901725635
-5.251447031901406
-7.109839816933555
-8.23556333288715
-6.8913716516382655
-3.356171759321982
0.4324942791786536
1.9694440705360345
0.9418495086813934
-1.4658769686349373
-5.750437474755499
-11.414995288728994
-12.968232601966681
-1.4774532238554317
28.071342037952085
82.29977116703277
164.36101763357405
269.9165432763298
379.8010499394289
462.98303944005977
492.9546372325156
451.0604388208764
347.38188181451187
219.4473011172193
100.11347422262146
4.381074168788447
-60.1955848701145
-87.7139588100842
-80.32750033653407
-47.61165701978966
-7.124646654985698
23.386862296429733
33.08641809127763
24.290348633725916
12.550948983702401
4.977385920039412
0.8769686364227871
0.8589312155048185
4.373536142144191
9.262619464263341
11.72890025575968
9.03715170279091
2.0192488894880225
-6.717862431017282
-13.06488087226148
-15.900794184952074
-16.514874141875225
-15.998519316191302
-15.774128415668974
-15.221025710057258
-13.596177143625003
-12.909409072550005
-14.26006191950406
-15.098936599813864
-13.801857585142795
-10.017768205682303
-4.63925158163725
-0.6869026786882966
0.6707497644378897
0.4013999192345442
-0.25198546237884734
-0.19545026248515585
0.03836317135599476
0.09449454839176613
-0.03392111993557739
0.0
0.0
0.0
0.0
0.05088167990336609
-0.20110378247490962
0.2604657423616969
-0.1433571140132458
0.07228429129134983
0.06622694844689808
-0.10660923408112793
0.28065688517779264
3.9340422667882944
11.411091667784653
21.77682056804438
31.486337326697136
37.17175932158239
38.12747341499618
36.65836586350539
34.72203526719227
34.62282945214757
33.58042805223007
30.809799434648408
27.380804953558656
24.12558890833191
19.926773455378928
14.762686768073467
8.423071745860693
2.8687575716760696
-0.3577870507496941
-0.9841163009831839
-0.3012518508537497
0.8799300040414932
-0.008480279983894279
-0.8266253869999214
0.194238793914376
1.0184412437748884
0.44057073630641175
-2.8287791088948
-8.46426167721009
-15.116031767400282
-20.648135684483957
-23.304482433706273
-25.53681518373673
-28.72216987481039
-34.329788666037786
-38.77789742899742
-39.561986808457576
-35.85973886122149
-28.79580024229186
-20.741553371918
-12.910082110647378
-4.520796877105426
5.260196527122315
15.590927446493929
25.565486606543992
33.53869969040218
40.86014268407663
46.055862161798
50.11118589311801
53.872661192621365
55.080226140804434
49.23798627003118
35.93161932965733
19.99946156952045
6.6016960559885005
-0.8395477184050079
-3.549199084665081
-5.1449724054322346
-7.825548526044882
-11.21510297483533
-9.183335576796745
-4.981827971461615
-1.6264638578500081
-1.5370843989745557
-3.426436936330994
-5.396284829723534
-6.312693498454491
-5.217660519584436
-3.9534257638959884
-3.5039709247570694
-0.08305290079129524
-1.3180778032125269
3.1910082110649145
5.34755687173419
-0.08614887601044963
-5.622021806433169
5.261811818532623
47.46843451336488
129.20837259386101
243.376093686888
367.667788396829
469.8562390631534
522.4393592677714
506.6889217930093
429.8857181316702
306.4560506124485
179.53385381609985
70.90604388206559
-8.877641674523327
-59.92354287252919
-82.11401265312563
-77.15493336924344
-49.48929869431045
-12.952752725791377
15.615022210275658
26.63521335308287
25.659308116838638
18.029344460891668
9.711535872926214
3.6918831605847022
0.8846412706961544
-0.7179970386343179
0.4814914524161832
2.238659308119283
2.405034324944814
0.798492394669141
-1.1945080091547096
-2.841163009826771
-4.74343787858333
-6.818548929867314
-9.607484183604528
-11.453896890566599
-10.828106070806365
-8.092475434110009
-4.3973616906688315
-2.3519989231372413
-1.580966482702987
-1.343787858393965
-1.0390362094505774
-0.12922331403886328
0.32750033651995986
0.18495086821914847
-0.2180643424426688
-0.015345268542044183
0.06420783416367176
-0.016960559967788696
0.0
0.0
0.0
0.0
0.0
0.0
0.03392111993557739
-0.11145510835955483
0.05976578274325439
0.06864988558355686
0.08520662269553847
-0.09449454839026711
-0.3650558621617657
0.47206891909918713
3.4524162067546564
8.914658769684765
15.818683537490077
21.393861892585967
25.037555525644642
26.68138376631886
28.96473280387391
31.24390900524819
33.111185893124706
31.56090994750838
25.48324135146128
18.480414591461937
13.454031498178717
10.946022344864701
9.050343249430835
6.240543814782031
2.8675461031089675
-0.09934042267082144
-0.8298559698490631
-0.43249427917569705
0.5605061246489085
0.08924485125806532
-0.03634405707378305
-0.08036074841794044
-0.338403553642393
0.06541930273107793
0.9073899582729532
0.20635347960956146
-2.597792435051994
-5.525642751380987
-8.7174586081586
-11.821106474625775
-15.579216583655988
-20.636559429262682
-25.647731861624816
-29.559160048462033
-30.466146183874674
-29.585946964595436
-28.925292771568348
-28.496836720960466
-25.182797146321885
-18.46426167721159
-10.644232063534007
-1.764302059492922
5.9608291829333
14.072957329381907
25.123973616901875
39.142684075915405
54.64275137973096
66.29223314040064
71.6195988692985
70.92960021537077
66.48216449050997
57.51123973617153
44.257100551894105
28.858662000270293
13.383227890694586
2.42778301251328
-2.6317135549902977
-2.9620406514999513
-1.6156952483470537
-1.7293040786087597
-2.5701978732003266
-2.992327365731953
-1.613272311214414
-0.22896755956300346
0.14389554449228611
-2.2536007537994394
-6.313770359404489
-8.428725265855
-7.179297348234354
-3.1032440436133317
0.3331538565124703
-0.018306636146392385
-6.26410014806112
-13.349037555526802
-10.917754744926164
9.940638040106135
52.84856642885327
120.43559025440021
204.6879795395999
321.5277964732837
413.2610041728508
471.1908736034795
470.8571813165019
405.2494279176386
294.7424956252445
171.16422129491062
57.69524835104899
-33.71126665770145
-93.78583927852605
-111.50114416478522
-88.16139453493483
-45.525373536125436
-13.874680306903496
20.851797011742605
23.665230852065484
19.667115358721222
13.496971328570838
8.688248754878506
4.8962175259129275
1.724862027190222
-0.0549199084676579
-0.4478395477178814
-0.6724996634798766
-1.4268407591867307
-2.5404495894481745
-3.344864719344079
-4.280387669939899
-7.019787319958807
-11.461838740072102
-14.971328577200923
-15.075784089384342
-11.034728765649747
-5.298290483238978
-0.595638713146865
1.028940638042028
0.3323462107938996
-0.3678826221584497
-0.17647058823539208
0.0662269484458835
0.08601426840787178
-0.03392111993557739
0.0
0.0
0.0
0.0
0.0
0.0
0.0
0.12720419975841524
-0.48579889621948535
0.29438686229621536
0.7624175528362942
-0.25965809664575445
-1.6031767398049284
-0.4567236505630018
4.578139722705283
12.275811010903897
20.313231928930445
26.56131377036133
30.904428590657687
33.84695113743265
36.69201776820655
38.86068111455332
39.140126531159325
40.20016152913948
41.65150087494913
41.65553910351627
38.029613676138034
30.190469780591457
20.00242293713695
10.509355229502965
4.0209987885291625
0.6134069188305726
-0.3703055592943043
-0.3206353479599743
0.18131646251288644
0.18252793108108067
0.03230582850983285
-0.12680037690133286
-0.16314443397538692
-0.0775339884253694
0.43653250773902924
0.13568447974240666
-2.1934311481990774
-8.416745187774257
-17.188989096782898
-25.531969309466138
-30.752860411903598
-31.689460223451412
-29.099609637903114
-27.030825144699207
-26.738995827162956
-26.513662673308353
-25.688787185356453
-22.84587427648302
-18.997980885716636
-13.448377978194584
-4.645174316870687
8.416475972535615
24.123839009287412
39.32938484318848
48.71476645578909
50.98075111051389
51.05317000941778
52.468569121004975
56.42347556871236
61.232332750038296
59.57437070939183
48.89379458878154
31.01144164759528
13.9340422667847
2.3195584870029102
-1.676672499663444
-2.5914658769664487
-1.6842105263136922
-1.1702786377721024
-0.38080495356114596
-0.13608830259545562
-1.6035805626557935
-5.607618791224318
-8.611791627410451
-8.473953425767869
-5.057208237984884
-2.167586485392208
-0.5217391304320873
-1.5747745322407702
-2.640597657831375
-3.371651635481952
-5.426436936321098
-11.455646789598143
-16.408668730648987
-9.071745860826494
22.48754879524404
85.19477722437595
174.19585408532714
281.23865930811
386.7091129357976
465.21792973483235
504.1885852739582
480.760802261445
396.49387535336257
274.62161798357005
146.10055189121792
34.880872257352955
-45.150491317821846
-87.44608964868807
-92.39211199355339
-67.10176335981186
-28.700094225327778
8.661461838760676
29.399919235451264
25.778166644231586
15.720958406238942
5.364786646914287
1.2838874680236025
3.4925292771561747
7.840355364116987
10.86781531835229
10.061111858935334
5.284560506123907
-0.058554314178057745
-3.40086148876309
-4.719208507200654
-6.142414860678722
-8.106878449318758
-10.512989635215904
-10.894333019250627
-10.634944137838374
-10.209045631979935
-10.848431821237657
-12.992865796205754
-13.361152241221294
-10.459954233412084
-5.584466280790081
-1.273657288999073
0.5475837932444889
0.43410957060097394
-0.02261407995817799
-0.24875487952693467
-0.0944945483912929
0.18414322250712092
-0.05088167990336609
0.0
0.0
0.0
0.0
0.0
0.016960559967788696
0.012114685691377372
-0.22694844528305985
0.17202853681500418
0.4987212276235064
-0.18979674249357137
-1.1739130434795193
0.04886256561785551
4.357921658363193
11.208103378652089
18.2922331403988
23.930542468704633
28.727150356708627
32.918427783010344
36.66119262350258
39.13097321308832
37.34930677076614
32.90092879256852
28.4420514201051
26.919908466815905
26.578947368423016
24.275272580433526
18.076457127476626
9.927715708707911
2.7661865661552367
-1.214699151976478
-0.8662000269202712
0.28832951945475316
-0.02745995423345121
-0.08561044555410952
0.5407188046825036
0.9550410553264299
-1.8979674249521525
-8.22533315385373
-16.700094225334464
-24.377574370715053
-27.769013326156994
-28.73145780050962
-29.584331673168858
-32.02086418091189
-34.07120743034121
-35.022479472339406
-33.6906716920185
-29.533584600888382
-22.67128819491249
-13.34176874411387
-1.0628617579780633
12.948983712480276
25.02544083995758
32.12087764167706
37.20608426436772
42.40974559159479
49.918696998245395
57.86404630501976
63.510162875226186
60.00673038094842
47.10310943599754
29.374478395473883
13.061246466543881
2.087360344591293
-3.306501547988774
-4.4314174182251405
-3.2916947099198466
-1.8715843316736924
-0.6095032978851899
-0.9691748552926459
-3.895813703052632
-8.491856239067493
-9.254139184283783
-5.7606676537910895
-0.866603849775125
2.7861084937462155
2.5695248351076514
-0.11697402073375018
-1.9834432628932248
-2.8791223583233063
-5.6435590254326655
-11.265850047105593
-14.950733611521352
-7.012114685693531
20.790146722295272
76.83079822315634
166.72741957191536
284.06030421319923
400.5497375151523
482.583793242748
491.43101359542584
423.6175797550417
304.0230179027988
174.1495490644418
66.71301655671647
-10.683133665367341
-59.430609772516384
-77.49845201239727
-66.45066630773073
-32.77049400996335
5.545699286599374
28.989904428617724
28.256292906187866
15.393727284957087
1.524027459935168
-0.6945753129721454
4.845335846011986
10.19356575582881
12.313097321314888
9.205007403419007
4.076322519850828
-0.2630232871195447
-4.328981020324144
-8.74922600618955
-13.490240947639037
-16.107147664561325
-16.002019114284995
-13.578812760800858
-12.054381477986178
-13.958810068646017
-17.703594023422916
-19.931215506803436
-17.4918562390676
-11.346749226006095
-4.539507336111193
-0.37192085071668846
0.893256158299518
0.23865930811511157
-0.45995423341166997
-0.005249697132346229
-0.004038228563476964
0.09449454839176613
-0.03392111993557739
0.0
0.0
0.07632251985504913
-0.23381343384120967
-0.05693902274976459
0.6344057073647965
0.16597119397237464
-1.0604388208367526
-1.1650289406420629
2.540853412298278
9.880737649750657
17.78341634136968
23.281195315659488
26.207161125318837
28.856777493599647
34.15547179970049
40.053843047520616
42.0594965675116
39.00888410284217
33.01844124377164
27.080629963651663
23.142011037824293
19.38282406784485
14.389689056402885
8.43626329250188
3.3044824337033667
0.43976309058912416
-0.25642751379708334
-0.2540045766580001
-0.0662269484445483
0.033921119934612
0.20837259388740353
0.42522546776149367
-0.2972136222882914
-3.841970655537087
-9.321577601292711
-15.248754879528683
-20.269888275677715
-24.58365863507623
-29.80831875083804
-35.840893794590365
-39.64988558352947
-39.072149683672926
-37.339211199350046
-35.67694171489587
-34.40422667923055
-30.52496971329428
-19.23690940907763
-3.7310539776527483
11.821510297489409
24.108762955986467
33.51716247139243
43.204468972939274
53.76376362902116
62.22775609099746
65.97240543815045
64.09812895410032
56.77830125185142
45.40920716112617
31.665903890162983
15.18616233678746
1.0506124646629196
-8.49885583524418
-12.186969982504976
-10.16462511778236
-5.767398034726766
-1.744918562387521
-0.10862834836262066
-1.1603176739810093
-3.039305424686463
-6.024498586618833
-8.822317943195253
-10.541930273256986
-8.21294925293107
-3.1184547045387645
3.2449858662007447
7.537892044694011
6.509624444749555
0.14295329116287414
-8.973616906714826
-12.319827702251043
0.662404092072232
29.787589177524424
98.52200834566385
185.85354691073377
294.04145914656357
403.71853546910637
481.3941311078681
485.66846143498543
407.3349037555899
276.1006864988347
142.34446089643615
40.55027594558758
-24.88087225736678
-62.26692690804686
-79.07834163413624
-81.42724458208083
-46.916543276354886
-6.924754341079055
23.31403957466915
28.422533315396162
19.024633194231292
7.53358460087462
2.3840355364060883
0.9203122896778134
0.02934446090017008
-1.0131915466405965
-1.7103244043625965
-2.395477184011547
-1.831471261272251
-2.392381208771122
-6.181854892985223
-10.513393458073836
-11.986539238125284
-10.20675730246346
-7.445147395339668
-5.636694036880221
-5.03149818279777
-4.222910216719857
-2.9356575582188973
-1.2043343653244898
0.4781262619488634
0.0997442455237249
-0.23906313097436982
0.10983981693407116
-0.038363171355625086
-0.014941445685813598
0.027863777089888707
-0.008480279983894348
0.0
0.0
0.0
0.0
0.0
0.016960559967788696
0.02907524565916607
-0.325077399382309
0.3412303136360749
0.5177009018734771
-0.4704536276739409
-1.1282810607093825
0.2418898909640595
4.901871045898551
11.725669672904514
18.323596715578052
22.63440570736559
25.079149279847712
27.51447031901574
31.895813703055012
35.89904428590944
37.088571813165764
36.43612868488382
33.610176335979475
29.662269484453198
24.141203392114324
16.75757167855825
9.02988289137022
2.950733611519196
0.02449858661807841
-0.33301924888890344
0.2152375824489671
0.19706555391083946
0.15345268542191115
-0.035132588504840565
-0.05209314847171764
-0.18898909678310352
-0.16274061112015142
0.4264369363297096
0.5956387131519658
-1.0656885179681377
-5.149818279711826
-11.83174047650891
-20.08507201507857
-26.0634001884554
-28.27634944138009
-28.841836047918452
-29.950868219138258
-31.986135415261
-35.58473549602991
-37.38161259927693
-35.03944003230782
-29.025979270426422
-20.098532776953878
-10.158836990176875
2.953560371515213
16.86068111455426
27.930677076326894
36.07928388747055
42.70278637770663
50.15870238254702
60.862565621208226
72.35415264504245
77.49710593620574
71.13137703595059
53.49643289810492
31.14416475971867
13.057208237978317
1.4844528200249187
-3.2755417956638477
-5.0636694036860765
-5.385381612600397
-4.2083725938895755
-3.1900659577308863
-3.954906447701661
-6.002826759992429
-9.31969309463372
-9.196392515821575
-5.673038093957104
-0.9333692286936703
0.9158702382603301
-1.0938215102993145
-3.371786243107537
-3.704805491991085
-5.297079014663508
-10.429802126789497
-14.848162605999502
-8.301790281337594
21.816799030808628
83.96486741147285
178.6004845874016
296.33678826220404
407.5827163817561
482.74572620814433
490.8185489299269
421.14429936737326
301.46910755147246
172.70857450527924
66.43330192486535
-9.896082918292404
-60.695382958669356
-87.948849104868
-87.83604792033131
-62.56629425226703
-23.067573024623876
11.884775878340585
24.510028267613784
20.41553371920738
10.161932965398705
0.4692421590977097
-3.4587427648450464
-2.6485395073370386
0.617041324541952
2.5863507874586396
1.591465876971301
-1.9511374343794519
-5.649616368288384
-8.470049804820446
-9.883295194507932
-10.051554717995955
-9.703190200566404
-8.044555121821988
-5.041997577062415
-2.501547987613605
-1.6554044958928857
-1.878045497375441
-2.4428590658253575
-1.8682191412044669
-0.5972540045757724
0.2721766051971586
0.35253735361458655
-0.06259254273869572
-0.20998788531490148
0.0916677883973299
0.01090321712210001
-0.008480279983894348
0.0
0.0
0.0
0.0
0.0
0.0
0.06784223987115479
-0.22291021671910966
0.043209045631459664
0.41351460492779507
0.06259254273971493
-0.7159779243499629
-0.6497509759070439
1.9484452820002076
7.3708439897673195
15.435859469647053
23.180104993945605
28.86310405169017
33.13972270830461
35.92529277156918
38.13958810068686
38.30232871180741
35.766859604257036
30.146183874005672
25.299501951805848
22.60627271503365
20.461973347694222
16.64773186162791
10.256696729035662
4.005518912367997
-0.3638443935966795
-1.7049400996121287
0.12316597119751926
0.8084533584638849
-0.6222910216747146
-0.3775743707133902
1.360883025980366
0.8278368555697555
-2.911158971594098
-9.474491856239032
-16.336922869837807
-21.440436128689214
-23.646924215911017
-25.199892313901515
-28.20810337864635
-34.13083860546479
-39.07376497510097
-39.93996500202259
-36.75811010903386
-30.223044824335187
-22.707228429127696
-14.376497509759933
-5.145645443533682
4.240274599542113
13.093148472206536
19.79970386324262
24.23246735765253
28.89419841162476
37.43182124107749
48.76968636424654
59.77224390900705
66.14914524162462
65.24256292906787
55.61273388074313
39.02315251043226
21.21321846815978
7.972001615285302
0.7616099071173967
-1.210660923406655
-1.14685691209809
-1.2581774128420367
-0.6286175797558053
-0.3331538565076389
-0.7523219814219726
-2.16947099205628
-4.514739534260102
-4.9787319962350844
-2.949656750573995
0.14322250639678577
0.9705209314901602
-1.9538295867518527
-6.767398034732178
-9.248754879532443
-8.281329923278143
-5.306905370840132
-4.6917485529562
-9.114551083582608
-12.072284291291565
-1.9542334096181238
31.054785300836024
94.0150760532848
189.56387131509388
303.75111051282073
430.743976309081
509.833490375609
518.1149549064943
457.21591062055336
350.6594427244405
229.55552564273466
114.09220621887273
14.263023287120895
-60.02624848568289
-95.18979674253183
-85.41391842780845
-41.55444878178695
3.9814241486456976
19.30878987751618
25.003903620953736
14.842643693622243
6.918023960143644
4.841836047914726
6.569121012251468
8.404765109713416
5.860277291699496
0.4793377305118848
-2.9769820971930336
-2.7630905909286074
-2.1498182797117096
-2.8933907659127454
-6.561986808453247
-10.566428859876389
-13.284695113745292
-14.736169067168106
-15.591600484584555
-16.79768474895694
-16.89998653924218
-13.433705747747533
-8.13406918831525
-3.1667788396795924
-0.23462107955087363
0.4009960963790221
0.09207161125200405
-0.06945753129690946
-0.16072149683701378
0.036344057074019664
0.06663077130187742
-0.025440839951683045
0.0
0.0
0.0
0.0
0.0
0.11872391977452088
-0.4070534392262306
0.10378247408717522
0.7906851527820733
0.04603580562991072
-1.4905101628752306
-1.0568044151342644
3.8371247812573577
13.223044824335982
23.965944272449274
32.785973886126115
38.12262754071967
40.74909139857069
42.83160586889218
43.755417956658455
42.81101090321615
41.80724188988822
41.139991923541764
39.53600753802848
35.53748822183717
28.059900390364444
18.300444205140636
9.426975366802575
3.5101628752163077
0.9053708439899248
-0.27459954233391193
-0.19585408533992726
-0.29963655942962075
0.10297482837354666
0.6953829586752123
0.1506259254302304
-3.138915062589151
-9.101763359806645
-15.110782070268764
-19.34486471934528
-22.221294925290287
-26.113608830258176
-29.630502086418165
-32.62471395881086
-34.86068111455204
-34.3191546641521
-32.48445282002994
-27.71543949387837
-19.348768340292356
-7.31605868892268
5.837124781267927
15.42926369633106
20.916139453493567
25.750437474755792
34.07538026651836
43.87871853546467
54.818818145110924
59.789608291836586
56.613945349312615
45.63117512451201
31.769820971863712
18.931484722032824
8.72943868622812
1.942791762011595
-0.8399515412581847
-1.5078745456995721
-0.9873468838320143
-1.027325346611614
-2.493336922867475
-5.599676941718699
-5.42199488491309
-3.914927984925724
-0.7435724861998582
0.3859200430770642
-0.3153856508274001
-1.642078341634723
-3.521604522818318
-4.627271503569171
-4.643289810200599
-7.498048189527686
-6.857046708825436
-18.052766186580747
-8.933100013471709
14.14591465878051
44.38955444879603
87.88746803067619
161.49145241616282
269.4543007133792
390.0861488760235
484.42064880877865
504.0166913448081
431.28940638043963
295.2596580966283
147.52995019513716
34.7940503432403
-52.74209180241645
-92.34123031365218
-90.99851931620883
-58.52254677615143
-14.717862430999416
20.071745860842313
32.45282002963401
22.210257100546592
8.354287252643646
0.17579755013019308
-0.7127473415014641
2.38336249832372
3.613541526455221
2.265580831874512
0.5117781666421638
-1.072015076053628
-3.1242428321425515
-6.0565351998902095
-9.891775474493848
-11.892986943064786
-11.08251447031904
-10.053708439894905
-9.74128415668058
-10.303674787994332
-9.567371113208228
-6.876834028807891
-3.0421321846802996
0.0856104455544307
0.9796742495640279
0.11266657692664866
-0.4421860277308689
-0.05007403418994963
0.14133799973141864
-0.014537622829583034
-0.008480279983894348
0.0
0.0
0.0
0.0
0.0
0.11024363979062653
-0.3876699421202362
0.12518508547514456
0.7264773186185347
0.03432494279492082
-1.4460896486744113
-0.9804818952798855
3.672768878713252
12.276753264234413
21.39682326020214
27.33974962983486
29.704670884371346
31.715977924343626
36.59281195315121
43.749629829052346
46.779647328045264
44.57194777224702
38.92475434109366
32.79997307847082
29.05693902274611
26.465473145782976
21.930811683945684
14.806568851798295
7.169336384436843
1.711401265308191
-0.5298155875636896
-0.5734284560498282
-0.07632251985336469
0.42401399919366467
0.05411226275355965
-0.1841432225071209
0.057342845605521955
-0.05532373132328067
0.07914927984955455
-0.1797011710874703
0.11791627406019056
0.0214026113881145
-1.5388342980194682
-5.419168124913046
-12.02732534661365
-19.41257235159633
-25.84843182124424
-29.52631578947574
-30.752456589041028
-31.849239466951243
-32.67896082918177
-33.072149683676514
-28.894871449726086
-22.80656885179564
-15.798223179427982
-9.147395342575766
-0.982097186705083
10.904832413510151
25.565082783684833
40.53721900659978
51.93256158298972
58.411764705883265
60.99555794857727
61.456589042936216
61.08749495221686
55.01682595235312
43.87939157356818
28.33180778032073
13.253869969035359
2.679499259650138
-0.8960829182964892
-0.22856373670247634
-0.7034594157967976
-3.468434513392878
-6.208103378655918
-6.111724323600798
-3.459819625789817
-1.494952214291742
-1.6560775339856677
-4.05936195988767
-6.528738726613287
-8.200699959618705
-7.958675461030261
-7.726208103381585
-5.423744783957929
-2.4188989096772695
-1.720419975763678
-5.433032709641892
-11.565890429394152
-11.340422667926166
6.452685421988226
48.917754744901714
123.78557006323841
229.01103782471475
347.36640193834455
445.89594831070116
490.91263965546324
455.14820298833814
350.7966078880143
215.4283214429604
93.34930677073062
0.3416341364736566
-57.0736303674789
-87.4265715439451
-96.10647462646737
-85.29331000135818
-56.44864719343679
-19.861757975492488
9.242562929075984
22.66873065016224
24.567236505590163
17.54543007133965
8.053708439890874
1.081033786504939
1.132319289274661
0.010095571410087323
0.15587562256316007
-0.9683672095834956
-1.992327365731059
-1.9314847220374114
-1.3983039440034886
-1.408534123028587
-3.6392515816355653
-8.417418225870204
-13.597254004579971
-15.528604118997933
-12.99488491048811
-7.836047920310835
-3.078207026514991
-0.134069188313804
0.7733207699563323
0.10499394265560767
-0.32548122223854453
-0.08197603984365548
0.09853277695571633
0.02180643424420002
-0.016960559967788696
0.0
0.0
0.0
0.0
0.0
0.0
0.08480279983894348
-0.29559833086667575
0.09489837124728684
0.5548526046591844
0.02503701709757017
-1.2518508547594345
-0.414322250641875
3.0347287656462787
8.646789608290586
16.303136357519232
23.46520393054406
29.356306366940508
34.000269215236926
37.86835374882336
40.425898505857496
40.8851797011683
42.214295329112055
44.04872795800287
43.65311616637883
38.87266119262667
30.672365055863967
20.279580024228068
10.393592677341564
4.28321442993486
1.173509220621834
-0.07551487414142755
-0.4781262619464677
-0.10660923408224714
0.4991250504793624
0.05128550275983329
-0.5063938618937132
-0.2895409880221542
0.5391035132567905
1.3289810203283912
-1.376632117372939
-8.221564140527606
-17.257369767130164
-25.60236909409502
-30.87683402881034
-32.10189796742381
-32.57894736841596
-35.23744783954733
-37.02813299233
-36.937542064882656
-35.0935522950582
-32.80374209179926
-30.146856912100606
-24.93579216584013
-15.078207026524147
0.19343114819961116
17.996769417152727
32.94992596581782
40.88504509355611
44.688114147258624
48.34001884506154
53.38080495355528
60.25965809664909
64.27204199757992
63.72930407861593
55.84762417553179
42.63777089783385
26.982770224792514
13.112666576925609
2.7787050747048494
-3.2883295194537783
-4.2408130300185665
-2.352671961232006
-0.3627675326410677
0.7093821510320801
-0.23260196526872434
-2.8495086821912174
-5.732534661465388
-5.953156548663504
-3.916543276349781
-1.2332750033628537
0.017768205682904104
-0.45403149818208033
-1.840759186971979
-3.0837259388919565
-3.2245255081441178
-4.182662538693321
-9.714228025302466
-11.387266119243588
-19.728361825296027
-0.19195046441608365
45.99999999999764
110.3750168259537
191.81397227081808
289.48418360476893
392.78758917753817
474.8981020325912
511.85408534128095
477.38834298026006
378.8305290079529
246.23650558618488
121.5930811683591
31.906851527803088
-42.87656481357477
-83.27231121282627
-90.28859873470572
-67.82339480415791
-28.487683402875774
9.733746130053781
29.990173643852444
26.100821106476275
14.692690806289946
4.512451204723281
3.6566159644579335
7.290483241353477
11.309059092752634
10.665230852072401
5.688114147260232
0.06299636558852775
-2.4673576524467524
-2.83806703459338
-3.2389285233511274
-5.251581639518292
-8.828106070804367
-11.96365594292877
-13.657423610178268
-13.596984789337501
-13.870776685957901
-14.755956387131121
-14.910755148744032
-12.498855835242956
-8.115627944542299
-3.329384843180055
-0.019787319959317984
0.8380670345952197
0.12868488356303254
-0.45833894198571495
-0.36142145645477
0.12074303405663261
0.10660923408289272
0.045228159913804425
-0.11549333692326841
0.05330461704157175
-0.008480279983894348
0.0
0.0
0.0
0.11024363979062653
-0.39615022210413053
0.1869699825006107
0.6000807645731663
0.03028671423086743
-1.26881141472606
-0.8242024498622208
3.3747476107100582
11.654866065418057
21.255754475706045
29.32803876699833
34.13353075784281
36.12680037689924
37.869161394532206
40.580024229372654
41.523354421861214
41.26221564140378
41.26410014806909
38.938484318212524
35.47947233813477
30.499798088573208
23.545026248486696
15.704132453896953
8.212276214831999
2.9352537353594497
0.35590254408322614
-0.6101763359812066
-0.13729977116563363
0.2612733880756039
-0.0201911428196187
-0.34446089648981004
0.9433301924902033
0.26854219949055097
-2.2444474357226882
-6.733207699556468
-11.415668326829996
-15.208776416746494
-18.613945349304256
-23.350787454566905
-28.85502759456079
-34.40718804684829
-35.0607080360765
-34.0139991923564
-29.618656615962077
-25.530488625651167
-23.318481626058748
-19.9815587562297
-12.31982770225433
0.43734015345066746
14.719343114824806
26.247408803344328
34.05047785704848
39.62498317404239
46.606811145505304
54.06568851796897
60.36034459551178
58.337192085076595
50.51447031902194
38.2168528738696
26.279983847082033
16.46358863911666
7.563332884643041
-0.4761071476629985
-6.859604253601996
-10.023287118055674
-8.251716247142772
-3.677614752993452
0.23637097860176712
1.5170278637807795
-0.25090860142727567
-2.7776282137605834
-3.3075784089401328
-2.315789473682958
-1.6366940368794756
-2.146453089244204
-2.5835240274631746
-1.2868488356485601
1.6330596311747525
2.8353748822244036
-0.7373805357290886
-8.311347422258898
-14.064207834168128
-7.100013460771239
20.57585139318397
69.93808049535168
140.94736842103728
234.51123973614725
340.90200565350773
437.8258177412951
498.0063265581236
493.119800780765
424.1130703998071
308.065957733197
181.50706689996463
68.56615964462388
-20.232198142418678
-79.1799703863353
-100.7488221833577
-84.0718804684528
-42.28550275945631
4.480279983870583
33.59281195318521
36.20325750438499
23.22735226812996
7.497105936177288
2.5308924485076183
1.5288733342321423
3.006461165707581
2.6236370978614936
1.5839278503144645
0.9073899582704946
-0.5855431417407487
-3.224525508140356
-8.035401803740932
-13.044958944678617
-15.931080899183204
-15.211468569122477
-12.817068246060904
-10.787589177543826
-10.677210930136887
-11.5465069322944
-10.798896217528666
-8.07672634271224
-4.509759052361794
-1.1557410149390617
0.3856508278383285
0.36061381074124876
0.03190200565264689
-0.21644905101699824
-0.08803338268937366
0.15627944541723224
-0.04240139991947174
0.0
0.0
0.0
0.06784223987115479
-0.1974693767674266
-0.06582312558988954
0.5080091533193247
0.21887198815702114
-0.8484318212402322
-0.9691748552991309
1.8951406649574971
8.585543141739574
17.408534123032577
25.79849239467305
31.499932696192996
34.38524700497997
35.84735496028837
37.79283887468092
38.10257100551881
37.717324000537964
36.275407188046856
33.271368959484136
28.24835105667178
21.135953694980454
13.036074841835203
6.045766590386713
1.500740341901032
-0.2031228967565038
-0.23017902813213365
0.3355767936487263
-0.3287118050888164
-0.03311347422347663
0.16637501682466826
0.7313231928941775
-0.5168932561575245
-2.7675326423469158
-6.585139318885888
-11.233813433840616
-16.65500067303718
-22.821375689862286
-29.376632117377007
-35.27809934042489
-38.32561582985987
-37.06743841701565
-33.73670749764289
-30.094090725531004
-27.62794454165795
-25.37878583928132
-19.485125858129557
-8.281329923275589
5.1580293444621566
19.16099071207827
30.74357248620421
40.36263292502146
49.26638847758572
57.135011441648494
62.04630502086615
62.84062457935177
59.353614214564246
52.20998788531645
41.08534123031772
26.065957733208364
11.451743168661425
-0.031498182802590854
-5.426436936336854
-4.010903217122046
-0.9746937676626289
0.12653116166880632
-1.8499125050476437
-3.852470049807263
-5.0397092475468375
-4.186835374882759
-2.596042536004409
-2.227352268135281
-3.4953560371538535
-3.583793242702053
-1.7457262081056313
0.2951945080124896
-0.8694306097647377
-6.3666711535810485
-11.924888948714546
-8.914389554453138
10.259388881404334
53.12208911024158
113.85314308786191
216.04751648942408
319.5695248351063
409.36680576120625
471.57046708846536
473.19154664158907
401.8382016422459
280.57396688652335
147.73791896618704
34.46399246194305
-42.61744514741584
-80.00323058285903
-81.7931080899144
-61.96217525911498
-41.81962579084069
-1.7885314308579372
21.205949656773566
23.114551083592687
17.50747072283483
11.343384035528821
7.578812760800894
5.029882891374387
2.44918562390838
-0.3513258850474066
-1.241755283352205
-0.3392111993530159
-0.7389958271605386
-3.3646520393023054
-8.122358325481578
-13.020729573297952
-15.102301790282507
-15.643559025438442
-16.08884102840123
-15.332750033653664
-12.61044555122114
-7.950060573429342
-2.741957194774474
0.5051823933267744
0.9045631982774006
0.1829317539357843
-0.5290079418514038
-0.13568447974125075
0.2846951137445758
-0.07632251985504913
0.0
0.0
0.0
0.0
0.0
0.0
0.016960559967788696
0.012114685691377372
-0.2354287252669542
0.2338134338404703
0.3892852335459267
-0.28348364517297975
-0.8298559698483033
0.13851123973384877
3.892717727820791
10.639924619733343
18.49441378382128
26.24229371382443
33.3032709651363
38.53183470184363
41.85785435455862
41.88544891641296
37.55041055323789
32.3888814106855
28.187104590114334
27.318077803200786
27.752456589046226
25.359940772653577
18.696729034866173
10.160856104453838
2.73791896620866
-0.9663480953057397
-0.9223314039566473
0.031094359943131367
0.5080091533196354
0.06986135415183435
-0.0726881141475661
-0.009691748552112911
-0.34728765648225157
-0.09812895410067246
0.5911966617297018
0.808453358461845
-1.8398169336346721
-8.170547853005095
-17.419975770628767
-26.50572082380207
-32.63090590927859
-34.71718939292114
-34.38820837259188
-34.78987750706547
-35.46291560102025
-38.233409610983344
-40.49239466953761
-41.390496702113865
-38.89689056400946
-30.35724862027612
-16.06972674653606
1.1424148606798936
19.472338134341847
33.85570063266245
41.760802261412486
44.987750706688125
48.46574236101198
54.16704805491351
62.739399650019806
69.04455512182385
69.91317808588654
62.548256831341504
48.02880603042008
32.01049939426236
18.31740476510909
6.22654462242236
-0.606541930275546
-3.2855027594566955
-3.4275137972797927
-3.0228832951938234
-2.45578139722641
-2.438955444876784
-3.6618656615957987
-5.145241620676267
-5.917620137301655
-4.889083322117884
-2.4540314981819984
-0.6613272311192059
0.3913043478275864
-0.030555929468817244
0.006191950460657125
0.04590119800981762
-2.495625252379509
-9.714093417678013
-16.629559833086184
-11.403688248761517
15.92475434108401
72.71395881004865
162.71638174718308
276.7769551756461
394.43235967156534
481.5891775474771
514.2012383901356
476.28846412710436
376.50302867142705
247.68259523487464
120.07874545697769
12.184143222494498
-63.6735765244475
-98.56535199894235
-93.53318077804687
-60.479068515279636
-18.02369094089234
14.921658365886298
27.779243505199393
19.888948714493036
7.792704267049735
0.3431148202902475
-1.970386323870672
0.3546910755178967
2.069592138922224
-0.4195719477686245
-5.5319693094652145
-9.861219545029703
-12.743572486203593
-14.049535603712132
-15.553102705612528
-15.758648539510803
-12.980885718135006
-8.05397765513445
-3.597119396953672
-1.698344326285763
-2.256562121417244
-3.027190738999294
-2.0943599407737175
-0.3904967021116275
0.38726611926373855
0.25642751379720896
-0.08843720554660936
-0.17364382824111843
0.08318750841343557
0.01090321712210001
-0.008480279983894348
0.0
0.0
0.0
0.0
0.08480279983894348
-0.30407861085057014
0.13972270830496425
0.46722304482580446
0.05532373132556101
-1.0733611522415398
-0.6138107416908792
2.7326692690773036
8.938753533449132
16.331269349848107
22.414053035405807
26.184412437744346
29.313097321303808
34.31013595369034
41.03176739803704
44.32117377844146
42.51473953426094
37.14618387400601
30.880603042128303
25.6392515816369
21.662269484454757
16.869565217394854
10.514739534258277
4.292906178486874
0.5039709247514818
-0.45753129627184097
0.14820298829139406
-0.025440839950387484
-0.30004038228645724
-8.076457145891891E-4
0.5136626733058001
0.757167855702346
-1.7416879795363696
-7.584870103644605
-16.443935926773573
-25.461569524838833
-31.54529546372594
-34.6531161663741
-36.58473549602819
-37.30717458608248
-36.273657289002486
-34.96096379055042
-33.057073630366475
-30.441378382013404
-27.963925158163775
-23.108897563606824
-13.016018306641914
2.4455512181984567
18.779916543280002
32.341634136496204
42.064073226547166
48.28577197469299
52.48108762955533
57.32763494413626
60.71193969578788
60.80656885179982
55.65271234352189
45.37878583928041
32.02705613137737
17.86525777358896
5.466146183870984
-2.3171355498759056
-4.941445685828646
-3.7345537757436857
-1.3011172432321538
-1.10607080360376
-3.6414053035406426
-6.033651904699014
-8.890967828781763
-9.80656885179545
-10.71543949387278
-11.828375286042258
-11.220756494821575
-8.110916677888138
-3.4253600753800555
-0.6812491586953073
-3.962982904823145
-12.622156414048856
-18.98425090860278
-14.148068380676483
11.201911428179748
61.89285233543039
140.54018037418717
245.78005115087277
362.5899851931588
462.10122492935665
513.5676403284835
500.4855296810131
427.2356979405101
318.08211064744694
201.57140934175558
93.03015210661046
-0.5516220218053649
-69.14026113879856
-97.83120204606661
-83.4152645039922
-40.68865257773079
4.549064477077616
30.26786916142429
29.82972136223684
15.10068649884056
3.8457396688482968
1.8089917889304565
4.377439763095578
6.361017633605356
4.97617445147563
2.3077130165532433
0.6921523758210812
0.058958137031554475
-1.8843720554541954
-6.475299501948964
-12.330865526989804
-16.982231794324857
-17.30057881276424
-14.59240813029878
-11.945080091529615
-10.911024363976317
-11.478260869565574
-11.787723785168877
-10.280118454706939
-6.868757571678493
-3.3211737784343365
-0.7624175528317282
0.08641809126416578
0.26652308520638
0.12478126261912631
-0.23542872526665853
-0.04522815991367135
0.11993538834344918
-0.03392111993557739
0.0
0.0
0.0
0.05088167990336609
-0.13326154260375483
-0.12356979405140539
0.4631848162616767
0.28550275945870174
-0.7402072957319432
-1.264773186166087
1.737245928115358
7.769955579486219
13.850047112670367
18.44487818010822
21.638443935926027
24.943060977246308
30.671826625384114
37.35321039171023
42.05841970656028
41.929331000135846
38.97940503432352
34.62834836451573
30.04253600753891
23.893256158299682
16.901601830664273
10.001480683806228
4.187508412974133
0.8326827298409357
-0.2661192623503257
-0.4058419706553734
0.3404226679249388
-0.03634405707350197
-0.12680037690198354
-0.23381343384248998
0.7503028671430547
0.2931753937288746
-1.7239197738579524
-5.284829721362671
-9.548929869431971
-13.813972270829614
-19.063938618923753
-24.852604657423026
-29.90267869161639
-32.95692556199155
-32.41768744110886
-31.68071072822203
-32.65150087494345
-35.67034594158239
-34.53843047517152
-27.26558083188261
-12.913447301117039
2.512585812362807
14.681114551088914
23.068380670347807
28.68878718535059
35.72230448242953
44.311616637501196
52.02692152376062
56.265446224257
57.379728092610776
54.288867949928616
45.622156414053855
34.37286310405333
20.74074572620916
7.11105128550164
-3.5217391304395855
-8.144972405443474
-6.592138915063578
-2.99905774666568
-0.5024902409428899
-1.055054516083308
-3.1644905101631036
-6.419706555395656
-6.724862027191988
-5.474491856236425
-4.974155337191038
-4.3361152241231755
-2.7188046843480116
-0.2311212814664041
1.8348364517460731
0.10539776551983904
-6.512451204732901
-15.525642751382579
-15.368151837383493
-15.094359940789666
15.118050881668964
67.69336384439485
136.36155606406692
223.63521335305433
325.9033517296861
425.2805222775638
491.022344864759
492.7007672634824
422.29169470994935
304.7641674518669
174.4005922734843
66.29277157084513
-4.115358729289079
-60.21806434245025
-81.35994077266614
-70.77453223854461
-36.058958137031674
3.533315385674588
26.313231928954206
25.587562256030363
13.328038766982445
3.165298155860797
0.18131646250483702
3.592138915068843
5.039978462788093
3.2471395881020255
0.31740476510530763
-0.683806703462149
-0.7609368690247283
-2.4357248620238336
-5.608426436934345
-9.568447974158346
-11.213353075789158
-9.498721227622553
-6.952348902943459
-6.716381747202161
-8.814106878449605
-10.550275945623437
-8.953291156282718
-5.112531969308949
-1.2106609234050931
0.8593350383659204
0.6053304617037275
-0.28590658231466126
-0.2705613137709276
0.06380401130767782
0.09449454839176613
-0.03392111993557739
0.0
0.0
0.0
0.0
0.0
0.0
0.08480279983894348
-0.30407861085057014
0.10580158836938686
0.6465203930565141
-0.22735226813680298
-1.098801992193637
-0.32790415937809436
3.02907524565673
8.572486202719128
14.966751918160734
20.674653385383476
25.299232736572232
29.556602503698443
34.792031228966195
39.641674518780704
40.810607080364015
38.34257638982529
33.898236640193325
28.795934849908082
25.979808857178302
24.37918966213661
21.31107820703111
15.35347960694836
7.938618925829489
1.927446493467512
-0.7688787185378447
-0.8318750841293285
0.1566832682752506
0.41593754206600075
0.03472876564756533
-0.2653116166385814
0.20716112532059835
-0.07470722842906796
-0.05613137703581583
-0.21887198815584866
0.17889352537198838
0.641674518778379
-0.6283483645146926
-4.6850181720254
-11.412572351594767
-18.446493471532865
-24.015345268546476
-26.39534257639102
-27.806568851794598
-30.099744245518856
-35.31700094225214
-39.90738995827482
-40.804415129899674
-37.5726208103401
-30.089648674114066
-20.331673172699364
-9.68501817202852
2.2635617175904574
15.998788531427763
31.16664423206558
43.51097052093647
51.24323596715893
55.30421321846584
59.39238120877249
62.737380535731845
67.2060842643719
65.77345537758353
55.09247543411786
36.66617310539769
17.345268542191928
3.6897294386794126
-3.25279310809246
-4.816664423203663
-4.762417552830616
-4.325750437475272
-3.091263965542398
-1.0107686095036692
1.2086418091287723
1.1056669807523338
0.05182393323656495
-2.622694844529807
-3.498586620005325
-2.2809261004194274
0.48337595907942893
3.135819087362804
3.3729977116716165
1.7764167451874981
-1.5117781666442838
-6.329519450798383
-11.28469511373698
-15.037420918020407
-10.319558487012559
11.710593619590965
58.877507066885116
134.86687306499064
238.79068515275887
352.67384573966825
446.11455108361196
493.45120473823346
470.6296944407456
386.02853681520213
263.0842643693418
144.65580831871318
54.783416341344804
-7.116166375013999
-48.316597119387005
-72.20056535199846
-77.75945618523328
-64.10795531028822
-32.74034190335183
1.0662269484637215
20.00053843049051
23.63682864450774
14.82177951271279
8.07282272176308
1.1955848700966718
0.0016152914216821107
2.6020998788545477
5.10310943599795
5.023825548530211
1.2964059765796345
-3.822721766053164
-8.605734284564427
-10.273522681385039
-10.410418629693847
-9.870103647865502
-9.204872795799686
-8.653116166374984
-8.21133396150214
-7.8555660250369765
-7.104724727419531
-6.008076457128111
-4.575178355096177
-2.293579216583147
-0.5124512047369633
0.3921119935398968
0.10782070265111297
0.010903217121695952
-0.1692017768210412
0.03190200565383891
0.047247274195883066
-0.016960559967788696
0.0
0.0
0.0
0.0
0.0
0.0
0.0
0.12720419975841524
-0.477318616235591
0.275003365190221
0.6986135415288528
-0.0646116570166666
-1.570467088437964
-0.8120877641723498
4.4198411630057155
12.776955175662291
22.001749899048438
28.369228698348977
30.80508816799081
31.198680845333037
31.596311751242396
33.23489029479235
32.8769686364256
31.76726342711124
28.83564409745444
26.30865526988715
23.41943734015393
19.347018441245734
13.916812491588924
7.468703728629984
2.452012383898664
-0.3981693363866524
-0.9106205411230449
0.003230582852838268
0.34123031363679973
0.29398303944045806
-0.27661865661654234
-0.28469511374412276
-0.06784223987259005
0.6412706959209507
0.5738322789097379
-2.217525911962973
-7.857315924081234
-13.761879122361469
-18.233948041462416
-21.098532776955604
-23.359671557405502
-27.813433840350292
-34.31269349845377
-38.01844124378116
-35.80064611657414
-29.578947368419186
-22.627271503562174
-16.891640866869736
-11.966751918161215
-4.348633732674701
6.846681922193677
20.28954098802272
32.26490779378771
39.20460358056353
44.6051958540809
50.93781128011457
56.679230044419675
59.63534796069822
56.98290483242095
46.20769955579915
30.52146991519505
15.70170951675235
5.689998653918656
0.8423744783959046
-1.8983712478091315
-4.629559833084875
-6.305424687037516
-7.226006191954286
-5.379862700230695
-2.134069188313755
-0.249562525236097
-0.541661058015143
-1.977385920043691
-3.639790012116332
-3.882756764032049
-4.341768744110567
-3.908332211603219
-3.419437340158571
-0.2327365728930879
2.506124646659816
0.47516489434474485
-7.8818145106926805
-15.744918562392437
-11.74303405573948
15.693498452001082
70.06609234081814
150.1893929196273
250.60694575310964
361.8592004307338
459.2575043747589
516.5603715170707
504.67398034733236
424.65378920448944
300.15183739398634
166.6260600349752
51.55081437607555
-31.049804818965214
-76.42562929063259
-83.84075918698542
-60.677480145382475
-22.71220891101391
10.573697671309121
26.925292771589437
23.297213622290545
13.541391842768162
5.745591600473546
4.051285502756312
5.664827029214946
5.750975905241807
3.3896890564005924
0.9893659981116019
0.2305828509867504
0.20352671961364616
-0.9823664019340798
-5.0126531161639845
-10.620810337866757
-14.922869834436094
-16.249966348097434
-14.928927177277034
-13.0601696055979
-11.383631713555372
-8.882083725939552
-6.145107013057562
-3.2976174451468987
-1.123031363574044
-0.044151298962751384
0.059765782743052276
-0.16839413110862433
-0.1562794454169383
0.1102436397905088
0.06663077130177388
-0.09610983981727406
0.0448243370576774
-0.008480279983894348
0.0
0.0
0.0
0.016960559967788696
0.012114685691377372
-0.2354287252669542
0.17445147395320987
0.5843316731751476
-0.2523892852313655
-1.4339749629852716
0.1906043882042066
4.935388342978517
11.004576659041076
16.27379189662539
19.461165701980065
21.82999057746435
24.8571813164581
29.8951406649596
35.86377708978834
37.07551487414557
34.634136492124995
30.778032036610302
27.32803876699349
22.818145107014335
17.221833355770322
10.626598465473778
4.390496702111087
0.3237313231897487
-0.9270426706165091
0.032709651368213674
0.7890698613567697
-8.076457127692005E-4
-0.5330461704148961
-0.2737918966238057
0.9724054381481253
0.6582312558909824
-1.7558217795089515
-7.50033651904608
-14.399246197337833
-19.826759994617905
-23.929734822989367
-28.132319289270516
-31.253062323327686
-33.625521604525694
-33.77641674518916
-32.5792165836564
-31.87912235832155
-32.03634405707118
-31.878180104997632
-26.902274868763765
-15.442724458207346
-0.21335307578313123
14.807107282275178
27.314712612738273
35.4206488087243
40.082514470316816
43.961098398167955
46.49481760667472
48.630905909274865
47.95113743438024
43.59267734553997
35.25144703190424
23.598600080766445
10.180239601561093
-1.8906986135448576
-9.738726611930598
-12.095436801724858
-10.66159644635797
-8.076860950328186
-5.618522008343988
-3.9705209314833674
-4.14093417687654
-3.460761879123092
-2.940368824873774
-3.5794857988938173
-5.310135953695158
-5.818145107015699
-4.467088437211428
0.09530219410241991
4.000403822861847
3.6066765379037404
-3.1545295463653473
-9.456319827706933
-3.912639655417002
23.589446762682282
71.33651904697675
139.22775609098215
228.1550679768205
332.56562121414214
428.29115627945504
484.9526181182359
468.985058554372
379.2387939157604
245.3318077802945
116.15533719204484
18.021671826604113
-45.02288329519408
-79.71543949387386
-88.10889756360969
-73.04468972945286
-39.49441378382435
-1.0208641808983503
26.26652308522942
31.707632251993044
24.658635078739984
14.434782608685188
8.408803338265447
4.248485664288382
2.7783012518547996
0.5743707093822169
-0.6120608426465709
-0.2233140395766971
0.8970251716270624
-0.25965809664356726
-4.636828644498681
-10.46130030960022
-14.134069188321424
-13.590254408401671
-10.896486741147857
-8.215102974824584
-7.334903755550867
-7.483510566699833
-6.738726611928751
-4.649750975906114
-1.8178758917736735
-0.22169874814772528
0.1837393996501211
0.12114685691166942
-0.06824606272768591
-0.05370843989777279
-0.021402611387732848
0.055727554179777414
-0.016960559967788696
0.0
0.0
0.0
0.0
0.0
0.0
0.05088167990336609
-0.16718266253933223
0.013326154259832523
0.40463050208769974
-0.07632251985356187
-0.5948310674383968
-0.39211199354043313
1.7396688652564523
5.47704940099541
10.54219948849121
16.20056535200029
20.96486741149573
25.10459011979964
29.01426840759125
32.122223717863356
33.20231525104503
31.698478933908948
28.75232198142489
24.65190469780283
22.249562525235884
20.974020729573503
19.111589715981946
14.523489029482118
8.104320904562387
2.532776955172539
-0.6683268273015103
-0.9465607753400066
0.06743841701661368
0.4009960963802908
0.14416475972514503
-0.2269484452828232
0.005653519989591196
-0.08641809126439759
0.0613810741682837
0.3489029479075125
-0.2774263023284475
-1.6045228159921325
-3.3389419841161723
-6.393861892581409
-11.296405976575896
-17.929465607754153
-23.635078745459595
-27.414995288734534
-29.95019518104659
-31.432359671555623
-32.32669269080567
-32.23219814241659
-29.910216718268476
-24.330596311749932
-17.21496836720709
-9.224121685289088
1.9470992058107082
16.700632655805503
33.23865930811799
48.03163279042085
57.590119800785004
62.187239197738755
63.53896890563422
65.05357383227462
65.12612733881082
59.233005788136104
45.364382824073495
27.02624848566341
9.655135280649208
-0.9598869296087077
-3.0014806838086407
-0.5133934580656676
1.1740476511006306
1.1887198815475257
-1.0421321846822846
-3.374343787859071
-5.750033651905527
-7.287118050881855
-7.9345806972679656
-7.423610176336717
-6.044958944676461
-3.979001211466366
-3.4561852200848935
-1.0074034190307228
-2.640059227360684
0.5540449589427281
1.877372459292936
-3.569794050326431
-12.080899178887561
-9.420244985876714
20.197603984360853
88.36317135546945
193.79445416608286
320.067303809392
433.8202988289262
506.6726342711405
506.5815049132281
432.1525104321252
300.73603445953904
160.01561448375057
39.755821779486276
-42.65648135686069
-83.87683402881616
-88.7297079014755
-67.67842239871173
-33.827029209846934
-0.9724054381301814
18.224929331016394
18.325077399377356
13.738726611920857
7.871315116432593
2.8601426840742388
-0.6408668730680213
-0.898775070668859
-0.7062861757956036
-1.1211468569090048
-3.333557679364171
-5.75689864046524
-7.068380670348913
-6.80441512989674
-6.3619598869257725
-8.221160317670666
-11.450800915332373
-13.53910351326312
-12.165028940641696
-7.760802261407824
-3.0127877237823375
0.1554717997070445
0.6388477587833757
0.1421456454422062
-0.398169336386007
0.005653519989724194
0.05370843989803892
0.03028671422809437
-0.016960559967788696
0.0
0.0
0.0
0.0
0.0
0.0
0.0
0.09328307982283783
-0.3065015479887758
0.06259254273721737
0.527392650425393
0.17041324539241215
-0.9320231525091938
-1.051554717999658
2.458069726741543
10.486741149545205
21.51218198950128
31.69026786916658
37.19060438821389
37.11549333692385
34.39830394399942
32.9304078610819
32.52335442186011
32.015883699018374
30.921389150626077
29.066496163682913
25.74814914524265
20.517970117110313
13.993000403824087
7.134607618790054
1.699421187235988
-0.8492394669562224
-0.6925561986804417
0.6675191815893433
0.12518508547648977
-0.6271368959510224
0.13972270830371844
0.9796742495635267
0.18212410822678238
-2.5368151837367416
-7.3168663346341365
-12.481087629563106
-15.479337730518903
-16.46641539911232
-16.718266253866165
-19.28819491182779
-24.193431148202382
-28.408803338272165
-28.990712074306842
-26.224660115766333
-19.00753802665039
-11.645847354954718
-6.654596850180016
-1.5004711266694493
6.624983174043179
17.606003499797644
29.212949252931438
38.73361152241459
46.3822856373656
52.98034728765213
58.84547045362515
62.0647462646427
58.913851123983825
45.47704940100064
27.350249024091415
11.419571947764611
1.878583927843995
-1.1093013864593924
-0.721227621479265
-0.8375286041155308
-2.344326288868094
-4.1296271368972
-5.506124646654576
-6.652039305424159
-7.106205411227424
-6.279310808994274
-3.9721362229116566
-1.2187373805339994
-0.17687441108706708
-2.501413379993312
-7.759052362366822
-11.13124242832972
-9.44770494010203
-6.854892986936006
-7.129627136884106
-9.664019383491958
-5.650558621624082
16.005115089501572
63.63117512450079
137.88248754878128
235.92138915060784
346.42778301250644
446.15049131781126
511.8347018441638
508.94467626873075
430.3198277022792
299.8337595907839
158.68797953961075
40.441916812467404
-41.90267869162814
-83.85543141742896
-89.01305693903312
-66.7189392919691
-31.36478664691883
2.9090052497172767
21.494009960984684
18.68582581773973
10.981154933359601
5.253196930935437
6.448512585808902
10.186835374882916
13.833490375561091
13.556602503709245
7.573563063670725
0.03472876564246513
-3.9755014133859015
-4.257773589986534
-3.6274061111832747
-3.9947503028610414
-8.47045362767335
-14.240139991926466
-18.084668192223685
-18.724188989097893
-17.351460492662056
-15.767532642346032
-14.019921927581398
-11.657154394940571
-7.966078880065103
-4.379593484990891
-1.21321846816337
0.23865930811806607
0.09610983981608098
0.0306905370838551
-0.10378247408841693
-0.03432494279167489
0.040786108493963816
0.01090321712210001
-0.008480279983894348
0.0
0.0
0.0
0.0
0.0
0.11024363979062653
-0.3876699421202362
0.11670480549125023
0.7797819356601063
-0.08116839412834764
-1.3754206488089236
-0.9744245524344476
3.860142684071525
12.111993538834446
20.72688114147654
27.237851662408193
30.58513931888514
32.66576928253756
35.49051016287313
38.806568851799874
39.38524700498302
37.4944137838199
34.729707901465375
31.794050343247577
29.150222102572123
24.794050343251673
18.644232063536727
11.31498182797097
4.74559160048189
0.8278368555637028
-0.4409745591603189
-0.26369632521044456
-0.07511105128468332
-0.050074034191668754
0.5382958675455455
0.3428456050616473
-0.7111320500709437
-4.673576524430642
-9.418495086823404
-14.03284425898728
-17.630367478798416
-21.615964463585847
-26.098263561716113
-30.14564544353496
-31.06299636559857
-28.314712612735637
-23.179970386319432
-19.90590927446086
-17.501144164759268
-14.549737515148584
-7.011845470457049
3.595638713151869
15.11428186835712
25.24821644905133
34.89742899447878
43.757033248079445
50.77601292233172
53.92058150491787
50.192488894878416
38.26086956521902
23.80953021940782
10.617983577864491
2.7536680576086736
-0.879122358324989
-2.365190469778576
-2.7263427109963625
-2.663615560641937
-2.0744380131933613
-0.6921523758227397
-0.3370574774496368
-2.145914658770032
-3.8279714631886548
-3.20527661865788
-2.2911562794445506
-1.354825683129993
-2.404765109703184
-4.62727150357029
-5.095706016966917
-2.577870507472346
-0.42280253061561224
-2.9125050477746175
-7.889487144964088
-7.2692152375814185
10.80468434512127
61.237447839523774
146.1000134607084
280.4116300982615
404.17498990445324
491.698613541556
525.2017768206
491.56844797417983
398.62606003500764
272.3929196392492
141.9594831067357
28.19720016150859
-49.435051823967186
-76.96244447438468
-58.83874007268832
-20.42280253060152
3.787319962311933
28.94225333156737
27.501278772388076
13.752860411886097
4.153991115879835
4.261138780448337
9.848027998390567
12.978462781002191
11.187777628219031
5.368555660248158
-0.20473818818810166
-1.9228698344356536
-1.8917754744897815
-2.7717054785259014
-6.2031228967546514
-10.754475703326301
-14.652039305426108
-17.657827433032967
-19.540988019921084
-20.44810876295525
-20.48499125050611
-18.418898909680546
-13.986135415265544
-8.326423475567392
-3.7294386862279336
-0.9316193296529768
0.40382285637443704
0.23502490240870774
0.02624848566367627
-0.24835105667049712
0.010499394266106077
0.10297482837566048
-0.03392111993557739
0.0
0.0
0.0
0.008480279983894348
0.03149818279737173
-0.19706555391119607
0.10539776551325991
0.40988019922076985
-0.15304886256431804
-0.7171893929197071
-0.1566832682748076
2.6944407053413815
8.205276618655544
15.175393727286155
21.69417149010797
26.652712343518456
30.339615022209784
32.547583793244456
32.33773051554934
30.126531161663554
27.541526450393988
26.387535334496697
26.310674384170273
25.191142818687922
20.61865661596877
12.913716516354686
5.1937003634366015
0.49993269618706204
-0.7870507470728791
-0.3884775878301786
0.4615695248378288
0.03432494279177839
-0.4187643020620626
0.32790415937456485
0.8351056669826571
-0.6424821644884688
-3.801453762282402
-7.927581101092041
-11.796069457533239
-15.07914927984794
-19.405707363034292
-24.55417956656239
-29.68542199488648
-33.17539372728776
-33.38161259927351
-31.506663077128795
-28.364921254541457
-24.33517297079143
-17.819760398441712
-8.18347018441367
2.8605465069346288
12.726746533856423
21.22264100148182
28.578678153179602
37.94561852200725
45.615291425493766
51.96702113339585
55.494279176205204
52.041459146593304
41.0950329788684
27.252658500470528
13.289944810874045
1.8487010364750178
-4.659711939699513
-5.615829855971672
-2.916947099204607
0.019114281871055447
0.10728227217708221
0.1720285368202254
-3.5724862027187427
-7.590792838879184
-8.381208776421339
-5.356306366940787
-1.9055054516055545
-0.37393996499784254
-1.4882218333541481
-3.6445012787745785
-5.25346614619115
-1.5623906313042144
-3.948983712482813
-1.5174316866317863
-1.1219545026128444
-5.058015883687721
-4.430878987749753
14.848162605990208
64.62323327497229
153.71584331669584
274.66415399109945
398.19666173107214
483.4164759725813
502.8228563737205
446.40436128688003
338.5656212141604
210.3511912773839
106.4153991115568
33.594292636959516
-16.180508816786972
-49.11885852738665
-65.17472068920324
-60.22546776149611
-35.51164355903151
-3.923004442032302
15.630232871206305
13.7894736842127
6.151568178748231
1.5716785569952296
2.344999326956347
7.4905101628802315
10.339345806980319
8.629021402614011
4.0788800646075885
1.1016287521844275
-0.9075245658907831
-2.47597254004317
-5.403553641134436
-8.833624983174401
-11.700363440573321
-12.831067438420064
-11.578947368418609
-11.70386323865509
-13.702247947233113
-14.912639655407425
-13.607753398846642
-9.227890698614866
-3.8307982231769913
0.24067842240288168
1.129088706422022
0.26611926234855326
-0.6134069188339888
-0.11670480549159043
0.24188989096887348
-0.03997846278126608
-0.008480279983894348
0.0
0.0
0.0
0.0
0.08480279983894348
-0.253196930947204
-0.035940234218262423
0.5253735361433144
0.3129627136926204
-0.9073899582701016
-1.190469780591855
2.021133396144638
10.348499125045938
22.411630098265302
33.221025710060545
39.90510162875613
42.079149279848316
42.249831740473695
42.2124108224527
41.10284022075878
38.30448243370472
36.68003769013234
34.74626463857553
34.20002692152248
33.50289406380746
29.24229371382883
20.929869430611134
11.572890025573567
3.8108762955943525
-0.1728361825304492
-1.102436397900401
-0.37353614214405684
0.4244178220504867
0.6218871988164935
-0.4320904563212098
-0.1902005653517953
-0.28065688518159587
0.46358863911565307
0.9029479068528049
-1.0301521066066646
-5.921523758242025
-13.710997442454193
-22.901063400190605
-30.342037959350485
-35.44703190200645
-38.02315251043185
-39.04590119800908
-37.849777897429504
-35.51110512854851
-33.618118185487255
-31.860277291693677
-29.099744245524963
-23.52200834567402
-14.593081168399017
-0.18172028537190688
17.494548391440333
33.313770359407364
44.58177412842181
50.17835509489911
53.7100551891191
57.602099878846225
62.936330596309126
66.78718535469736
62.976982097196874
49.27096513663106
30.547449185619435
14.301924888942255
3.195181047243125
-2.379728092609855
-4.433571140124853
-4.553102705612859
-3.773993808052051
-1.7389958271641792
-0.36788262215176226
-2.2580428052179444
-7.153856508279227
-11.12033921120497
-10.857719746942745
-6.579755014133193
-1.9862700228778691
-0.317808587962702
-1.1056669807548276
-1.2090456319883445
-0.35482568313243545
-1.2385247004871127
-6.513797280914762
-10.427783012516151
-0.2620810337933679
35.035671018959114
107.2261407995374
216.9963655942633
346.50410553236827
458.85233544221023
520.9627136896514
501.9777897429512
409.0857450531841
276.2246601157323
148.77237851658714
48.54516085609334
-24.96863642481461
-74.85731592408243
-96.03055592948151
-87.14726073497822
-53.913178085884674
-12.30905909272535
17.11320500743035
22.27648404900342
15.60559967693595
5.2914254946713255
1.0706689998620162
-1.0424013999212358
-0.005788127606226781
1.045766590392734
0.2864450127901853
-1.7865123165977062
-3.9013326154305115
-3.765513528067993
-3.080360748415353
-4.559294656071869
-9.295867546101139
-14.36034459550762
-16.09274464935325
-12.978058958140588
-6.474895679092689
-1.1502221025661103
0.9410418629720146
0.34163413649077395
-0.4738188181472697
-0.48499125050542763
-0.24229371382401493
0.15870238255567276
0.14941445685849147
-0.061784897025569635
-0.062188719881696664
0.0448243370576774
-0.008480279983894348
0.0
0.0
0.0
0.0
0.0
0.0
0.05936195988726044
-0.18656615964532658
-0.02503701709592568
0.5245658904310158
-0.11993538834188255
-0.5306232332740686
-0.6788262215661425
1.6996904024735113
6.869969040245723
13.687979539643585
19.631848162610208
22.87508412976407
24.199757706282956
26.972136222906425
31.030959752321504
34.095436801724695
34.93673441917221
31.657827433034925
25.276887871851223
19.381074168796243
13.910620541122087
9.39211199353995
5.074976443666789
1.668192219678359
-0.02422937138333847
-0.357787050746987
-0.36182527931090414
0.36586350787605115
0.11670480549196008
0.008076457127826425
-0.32992327365791707
-0.4502624848601732
0.9820971867006923
0.6093686902715105
-3.2402745995375217
-10.610580158835571
-18.76134069188672
-24.36895948311265
-25.45443532104071
-24.666846143488932
-24.464800107682358
-26.393054246869397
-29.789608291831822
-31.358729304077755
-32.64436667115152
-33.15924081303025
-30.398169336387678
-22.829182931759107
-9.914927984925988
5.455646789611484
19.04051689326117
28.921658365866328
36.161798357786424
42.245255081431154
51.55646789608099
60.326288867952904
65.66926908063304
66.59765782743176
64.78408937945768
59.26235024902785
47.70224794723837
32.35388342980431
16.10203257503993
3.8201642212884366
-2.5549872122816217
-2.4427244582031826
-0.3682864450073683
-1.0957060169584012
-2.939022748687296
-4.845874276484931
-5.502221025712011
-4.5582177951307274
-1.5096244447447136
1.9733476914834154
2.0585543141786617
-0.9865392381186189
-5.924619733480334
-8.34446089649192
-6.835778705075062
-5.857585139322316
-2.521066092338052
-3.0784762417462934
-9.847893390757669
-18.050074034188963
-18.26652308521204
-0.6545968501889212
41.03001749898095
110.36438282404946
208.0329788665785
324.4615695248211
432.213218468174
502.3219814241937
503.0997442455844
424.4151298963752
300.22169874812874
171.44918562386883
66.40759186968062
-10.575716785566922
-63.078207026511805
-92.01467223046035
-91.37192085074146
-64.44460896487767
-24.259523489015244
8.899178893551424
21.011307039989244
19.10445551217655
13.51554717995875
11.193969578672583
11.256427513800354
9.76928254139707
5.811280118456523
1.2619464261653526
-1.275541795669831
-1.2790415937577395
0.743168663349291
0.32628886795578266
-3.9913851123943473
-10.715574101497346
-15.276618656619469
-17.39978462781197
-16.868084533583115
-15.658769686361977
-14.382958675461024
-12.524296675194526
-8.876699421188842
-4.138242024496668
-0.9820971866986461
0.251177816665099
0.366671153586967
-0.02584466280886899
-0.15224121685332653
-0.10499394265716233
0.15627944541723224
-0.04240139991947174
0.0
0.0
0.0
0.0
0.0
0.0
0.0
0.07632251985504913
-0.2931753937284701
0.19746937676671683
0.42805222775771823
-0.2620810337856101
-0.7018441243776037
-0.3060977251335708
2.549333692285402
7.15452954637267
12.431013595370635
17.721227621483724
22.764975097589797
27.22923677479978
31.659711939697
34.11549333692593
33.21119935388376
30.899448108761657
28.102974828374116
24.874680306905066
21.45981962579249
16.565755821780364
11.233813433840416
6.149818279713506
2.38820837259238
0.4946829990571213
-0.007672634270690572
-0.18535469107517194
0.032305828510827916
-0.1167048054923884
-0.07309193700525612
0.5770628617582259
-0.031498182796696916
-1.9901736438279556
-5.549333692284935
-11.97469376766498
-20.186566159642943
-28.84129761744736
-34.27096513663106
-35.57235159510485
-32.890429398303674
-29.589715977917667
-29.515143357107576
-32.24727419572117
-32.4207834163482
-26.463992461978147
-15.357652443128636
-1.8777762821342874
11.03378651232027
21.46022344864673
31.23731323192633
40.8964867411479
50.02342172567246
55.21604522816252
56.244582043341616
55.99340422667785
52.78974289944936
45.309462915604456
33.744649347157086
18.917216314443408
4.83389419840828
-5.555391035138384
-9.20837259389178
-7.857450531699218
-4.794184950865398
-2.7329384843168048
-1.3968232601963573
-0.49131780858822716
-0.7936465203948398
-0.7391304347807324
-2.2336788262180427
-5.036747879929319
-7.029882891376762
-4.808318750846341
0.610983981692189
6.267599946160325
8.248889487150118
4.601965271238054
-3.0720150760507887
-11.15035671018779
-13.854354556466413
-4.237851662405403
25.359806165020444
82.26800376899114
172.47866469239216
288.9212545429894
407.5609099475167
492.80899178897704
514.9554448782154
477.0028267600244
381.93121550679354
266.89177547446377
161.75662942520736
73.49939426571993
-0.5041055323662771
-54.30367478800419
-75.91519720018627
-63.50881679905106
-28.312155067974636
8.820164221318931
30.621348768370193
27.76255216045908
10.07766859601994
3.451204738179805
0.7756090994743298
1.3238659308141931
2.8344326288886315
4.017229775204793
5.163279041593376
5.209584062458897
3.2556198680876154
-1.9277157087074877
-8.245793511913227
-13.96055996769725
-16.864315520262213
-16.51783550949045
-15.237313231926011
-15.20810337864771
-17.110109032170698
-19.16691344730287
-19.6661731053994
-18.17620137299916
-14.429398303944444
-9.729034863373204
-4.94723381343255
-1.730784762416629
0.28873334230856074
0.6840759186974077
-0.09691748553125212
-0.22089110243704593
-0.10297482837518729
0.18414322250712092
-0.05088167990336609
0.0
0.0
0.0
0.0
0.008480279983894348
0.06541930273294913
-0.3254812222385395
0.20393054246850295
0.5213353075802657
-0.13689594830859653
-1.1403957463998005
-0.033921119936841104
3.523085206619401
11.045497375148699
21.419706555390643
32.03742091802598
40.06043882084065
43.58958137030816
43.214295329116375
40.6656346749209
37.50558621617629
35.69296002153791
32.7949925965823
29.242428321443295
24.7906851527789
20.10835913312794
14.225602369094808
8.501547987616547
3.4288598734676627
-0.07672634271355694
-1.1553371920864648
-0.3464800107673033
0.5782743303292323
0.36061381074209886
-0.4429936734433099
-0.0629963655942023
0.04442051420062454
0.10903217121962722
0.38161259927348
-0.7196123300556476
-4.233140395744008
-10.035805626598798
-16.0064611657038
-21.203392111995218
-25.139184277829894
-28.50477857046518
-32.090052496970365
-34.70332480818393
-36.072957329387336
-33.68259523489202
-27.985462377171086
-20.00080764571263
-10.720958406245284
-0.8044151298952928
8.820164221295133
18.194777224389572
28.152106609234302
37.28725265850157
45.0048458742759
52.12733880737533
57.20702651769788
60.7830125185098
58.95288733342931
49.537219006603365
33.09489837124871
15.869296002147648
3.3420379593397462
-1.2914254946863857
-1.0349979808827345
-0.16031767397473667
-1.2173913043451394
-3.478126261949868
-3.6926908063041433
-1.2000269215233808
0.5513528065713059
0.7582447166546562
-1.694306097724668
-4.6140799569284985
-5.819356575584258
-5.486741149548366
-4.666711535871477
-4.070130569391053
-3.4525508143794
-2.214160721497614
-1.9740207295667123
-6.165971193961087
-11.759186969977675
-11.735092206221932
5.246062727144313
46.08211064744859
117.29425225465052
219.57154394935995
335.7958002422828
436.5874276484324
482.2977520528286
445.7392650424553
338.1487414187712
201.44770494006409
79.91290887060329
-5.661192623518796
-55.37474761071314
-77.49441378382102
-75.63817472069593
-56.50235563333638
-26.564005922730384
2.0419975770801835
15.769551756639217
16.84964328980832
13.491721631439676
9.347287656477402
6.558890833220314
4.1449724054378985
2.546237717055385
0.9558487010381664
-1.6280791492785325
-5.134876834030028
-7.5688517970132105
-9.022075649482625
-9.867546103108536
-11.30475164894179
-13.057342845603019
-15.312289675596276
-16.076726342714185
-13.996769417152262
-8.889756360209269
-3.969713285769565
-0.761609907118659
0.46116570197944207
0.3355767936458224
-0.14497240543936968
-0.17808587966113665
0.0020191142822117425
0.10297482837566048
-0.03392111993557739
0.0
0.0
0.0
0.0
0.0
0.09328307982283783
-0.31498182797267016
0.09045631982710611
0.5463723246751568
0.08843720554838724
-1.1294925292771818
-0.6541930273275371
2.855835240271691
9.798627002285764
19.811953156548608
30.226544622427305
38.74936061381302
43.78408937946073
45.36599811549428
44.851662404092416
42.596580966480296
40.6703459415773
39.937407457263596
37.34822990981511
32.79930004038246
27.31336653654587
20.928792569659688
14.076726342711058
7.982635617175944
2.955983308653857
-0.038363171357339354
-0.8742764840497612
-0.31780858796516087
0.5500067303833496
0.17768205680475796
-0.6675191815885091
0.20635347960588807
0.828644501279715
-0.11751245120211379
-3.4626463857835676
-8.685825817742481
-13.870103647868772
-18.38457396688708
-22.37945887736908
-27.427244582040924
-32.10257100552146
-33.58904293983553
-30.981424148610547
-25.026248485660965
-20.669807511098238
-19.883429802123167
-20.41876430206314
-17.172028536821145
-8.507201507608727
4.574639924620951
18.781531834704627
31.944676268677505
44.101090321711865
54.133530757838976
62.63440570736346
67.69470992058511
66.2717727823401
60.76335980616575
51.11468569121226
38.0051150895163
23.074168797952158
10.761340691879255
2.575582177946519
-0.5419302732541448
-1.5159510028234495
-2.9091398573119505
-5.477049400995537
-7.929734822994984
-7.426975366808732
-4.471665096243787
-1.5225467761454623
0.20514201103965532
0.4599542334101109
-0.1385112397371664
-0.4991250504790598
-0.40314981828062335
-0.43774397631020756
-0.7205545833881777
-2.541661058010842
-6.272176605189173
-8.77210930138216
-2.800511508953482
21.638443935915333
74.37932426973472
158.5356037151468
268.64328981018457
386.71342037959664
479.0445551218392
523.5621214161179
494.15749091402915
397.8336249831851
268.7688787185221
136.58487010361642
32.71692017766006
-36.349037555531794
-73.42280253062431
-83.41620675731043
-69.12424283215317
-39.944003230583235
-7.70090187103149
14.308116839431936
17.495625252389402
15.477318616229919
9.978193565748473
5.801992192753464
6.036747879937142
1.769282541391817
-0.8621617983596902
-2.350787454572783
-1.9033517297073528
-2.010499394263392
-3.747879930002114
-7.137434378785962
-10.941849508683813
-14.092879256967084
-15.839278503160394
-18.48054919908401
-19.499932696193003
-17.585273926508194
-12.278906986136583
-5.992596580964315
-1.1180508816761914
0.8119531565505715
0.4450127877227396
-0.4316866334657365
-0.4171490106347185
0.2148337595920174
0.16758648539545926
-0.15789473684274014
0.05330461704157175
-0.008480279983894348
0.0
0.0
0.0
0.0
0.0
0.008480279983894348
0.03997846278126608
-0.2503701709527678
0.22089110243652826
0.3222506393874939
-0.09489837124608402
-0.9962309866750736
0.1510297482821148
3.15439493875199
8.251043209045177
14.488760263830933
20.91237044016686
26.64463588639279
29.92798492394936
30.573966886526453
30.591331269348093
30.602369094086278
32.21631444339686
32.6481356844829
30.2723112128195
23.524431282811495
15.342441782202888
7.9325615829822915
3.554717997037681
1.2873872661197971
-0.1130703997850317
-0.2548122223714479
-0.008884102839169475
-0.15183739399694793
0.24027459954218777
0.014537622828040386
0.3436532507746415
-0.7765513528051948
-3.8723919773855253
-8.183470184411586
-14.112531969308746
-20.458204334363945
-26.91977385920181
-30.817875891779103
-31.12828106071077
-28.615022210255315
-26.5322385246982
-24.639924619729772
-24.409476376362324
-23.409880199223323
-18.263965540453672
-8.706016960560596
2.800511508954025
13.671422802532327
23.789742899446995
34.14658769686263
43.44043612868481
50.78691613945532
54.65500067303745
56.44393592677282
54.00713420379691
47.24188989097363
34.58083187508821
19.371651635480976
6.024363978993916
-1.3883429802196579
-2.024767801857195
-0.5230852066171059
-0.6123300578761529
-3.616772109303536
-5.088706420787784
-3.772782339482039
-1.8457396688644734
-0.6610580158800895
-1.817337461296903
-5.003365190470264
-7.516893256162616
-6.852335442189564
-3.615426033113343
-0.6675191815849213
0.8990442859088166
-0.7263427109922675
-6.236774801448318
-12.218871988152651
-11.232332750035251
3.985058554307723
42.29613676133403
105.1430878987571
197.13124242829497
310.7583793242528
420.4927984923986
498.45241620680076
507.37757437076425
439.72405438150616
319.3266926907967
184.52187373802786
64.78624310134008
-24.172163144444273
-76.99030825145873
-93.36532507741784
-75.23421725670656
-38.61731053976966
-1.8111455108134653
19.11926235026928
19.061515681785913
12.893525373527615
6.572620810330144
3.822990981288599
2.527392650425734
2.062188719882834
1.7524565890415962
2.082245255080159
2.724592811955607
1.2169874814941595
-2.5350652846959534
-5.917350922063579
-9.023556333289683
-11.236101763359263
-12.687710324401857
-14.584466280791911
-15.126934984524086
-12.505586216181843
-8.46130030959533
-5.452281599134949
-4.550679768474103
-4.431148202990252
-3.628213756900678
-1.8947368421052855
-0.25077399380668175
0.7002288329536189
0.3089244851255233
-0.3743437878599751
-0.1098398169335737
0.17324000538502093
-0.04240139991947174
0.0
0.0
0.0
0.09328307982283783
-0.34042266792435316
0.18252793108066656
0.4991250504795104
-0.052900794182868915
-1.0850720150764932
-0.4373401534550471
3.0189796742472823
9.063669403686559
17.23677480145401
25.44905101628955
31.548660654195192
34.781666442321665
35.95006057342824
36.28536815183591
36.14254946829735
36.18050881679957
34.56346749226335
30.068380670348308
23.309732130837435
16.625386996901717
11.292098532776155
7.080899178893923
3.878449320232251
1.2748687575711442
-0.3634405707378141
-0.4522815991385804
0.07188046843570615
0.22291021671908018
-0.061784897025633556
-0.1821241082258831
0.13729977116606196
0.0714766455783859
-1.394265715436536
-6.171490106337975
-12.923677480144796
-20.651500874951257
-27.156414053037466
-31.552833490375967
-34.055189123702746
-35.5308924485119
-35.36290214026338
-31.95732938484548
-25.7427648404898
-18.40624579351013
-11.08668730650005
-4.057073630367637
3.7454569928651225
12.101494144566198
22.537622829451614
33.17310539776628
42.596984789340276
49.706824606273024
54.130973213081795
56.51998923139018
54.61986808453785
46.24888948715144
32.02126800377168
15.92327365728391
3.948579889613508
-1.3233275003406935
-1.5074707228392135
-1.5039709247487227
-3.137030555927977
-5.349441378386209
-5.063400188454489
-2.1966617310522207
-0.5463723246702915
-0.7653789204450013
-2.3913043478279263
-3.088167990310426
-2.650693229236703
-1.8569121012228305
-1.9275811010908637
-1.5117781666472758
-0.3915735630660131
0.8029344460940897
-0.6695382958571381
-4.6702113339542155
-3.8789877507094106
14.219141203383536
57.34728765646291
132.94036882484858
237.95746399243808
352.89473684209884
448.1249158702692
484.95611791633394
441.16287521878616
330.8668730650218
193.68461434913732
74.08399515408661
-6.9409072553682405
-50.25898505855453
-65.07861084937558
-56.80185758514429
-34.55552564275523
-6.333423071736983
15.476241755301155
20.8306636155678
15.870103647862873
8.168528738718253
3.5456992865745134
2.254004576659711
1.2770224794751117
-0.45712747341179083
-3.59038901601801
-6.174989904430957
-6.986270022886668
-5.6204065150101306
-3.4680306905344027
-3.5980616502860134
-6.412033921118029
-10.899044285906532
-15.14335711401464
-16.907120743037417
-14.827836855568187
-10.193700363440714
-4.908197603982384
-0.9328307982203987
0.6202719073911642
0.49145241620611013
-0.11710862834979158
-0.39857315924180403
0.13649212545524386
0.07753398842397743
-0.03392111993557739
0.0
0.0
0.0
0.0
0.0
0.05088167990336609
-0.13326154260375483
-0.09812895409972233
0.4219948849114823
0.15708709113112163
-0.6594427244576982
-0.5936195988701191
1.4323596715555875
6.222506393859318
14.169874814912763
23.92556198680872
33.01924888948941
39.08049535604006
41.21012249293453
40.825010095572196
38.24512047381669
35.69349845200831
35.246735765245774
32.898640463052494
28.831605868892712
23.83214429936705
18.242024498586535
12.418360479203157
7.1358190873602485
2.9228698344318085
0.29034863373144015
-0.7260734957607298
-0.5750437474760488
0.4361286848855892
0.31578947368442145
-0.17929734823070964
-0.0076726342703743455
-0.3149818279724485
-0.03351729708060261
0.7470722842916031
0.37232467357831767
-1.9242159106187047
-6.2044689729438005
-11.340961098399253
-16.542064880873042
-21.26921523758146
-25.926100417282836
-29.571140126530462
-32.793646520396294
-32.615829855973445
-29.367613406917524
-26.696325212002385
-25.9802126800337
-26.203526719613137
-23.765782743308506
-15.872930407866754
-2.3490375555269916
13.703863238663128
27.997711670484197
39.21025710055212
47.66967290348434
54.88194911832117
58.707766859605286
59.466953829586906
57.61569524835083
52.787993000402416
46.249293310003026
36.359806165032715
23.27096513662955
8.880603042130325
-2.5319693094683924
-7.8361825279360495
-7.456723650559597
-4.591196661728472
-2.032305828505477
-2.2931753937258947
-4.1329923273672655
-5.819895006058772
-6.7692825413913615
-7.552160452280692
-7.923139049670944
-6.817202853683068
-4.292367748015639
-0.9850585543147075
2.0962444474357937
3.7402072957354737
2.32898102033045
-1.747341499524269
-4.721227621481117
-0.4234755687198417
19.778570467083
61.14524162066285
128.68111455106086
221.6780185758292
326.0009422533312
412.09530219412994
451.29357921661506
437.0835913313139
358.13783820165594
248.62942522544074
146.96325212003632
68.3540180374113
8.626463857864874
-36.99892313904157
-65.28348364518423
-69.60573428458302
-50.29452146993095
-16.84156683267381
14.157894736873763
22.90106340020634
10.903351729691675
5.308520662261803
0.726746533849478
-0.33759590792806315
0.22775609099685085
0.4187643020601779
-0.2834836451745737
-1.3716516354801451
-4.809664827027451
-9.309328307982383
-12.973078476243401
-14.538699690405714
-12.771840086151645
-8.287521873736997
-4.230717458604366
-2.7575716785546684
-3.0309597523223677
-3.4892986943081645
-3.160048458744799
-1.6051958540850748
-0.12478126261796096
0.6368286445027349
0.20271907389906824
-0.3145780051163805
-0.07551487414176572
0.13689594831123786
-0.03392111993557739
0.0
0.0
0.0
0.0
0.0
0.0
0.0
0.06784223987115479
-0.2737918966224757
0.29519450800973535
0.02826759994623773
0.1138780454989271
-0.5221429532908322
-0.3674787993014518
1.7283618252772963
6.170682460626692
11.995288733342921
18.254004576659003
24.723112128146116
30.396554044958734
34.783147126128654
36.92542737919183
36.16597119396985
34.30555929465594
31.12330057881035
28.96325212006893
26.857450531700522
23.79835778705287
18.63817472069092
12.263427109974838
6.025440839950072
1.3669403688221793
-0.5734284560519745
-0.6025037017090615
0.04886256562239617
0.6618656615986174
-0.18252793108113968
-0.7858392785060611
0.4074572620802051
0.9275811010906194
0.2770224794746446
-2.9822317943168817
-8.778570467087006
-16.113205007405337
-21.967828779110967
-25.894333019250507
-27.41553371920896
-27.71570870911245
-28.237447839546522
-29.103917081704214
-30.96419437340011
-32.76632117378006
-31.44918562390844
-26.78058958137406
-17.422398707768515
-5.354421860274619
5.873738053576993
15.359536949791224
24.960021537218292
33.94158029344219
43.59577332077014
52.00915331808003
58.07739938080541
61.95275272580153
64.20069995961543
63.701305693905276
57.55606407323445
43.654327634948594
25.862969444067772
10.467626867674284
0.8112801184479176
-1.5139318885463915
-0.04038228563410982
0.8714497240582689
-0.13608830259502816
-3.1133396150234374
-5.236370978600271
-5.384977789744132
-4.575582177951346
-3.0494009960953488
-1.590119800779303
-1.2627540718811494
-0.9094090725542655
-0.5544487818004427
-0.3567101897935637
-2.780589581374792
-2.479741553376224
-1.0710728227176824
-2.1122627540608643
-6.190200565345007
-5.410687844934326
10.605734284548612
52.19154664152513
122.09247543409214
218.2517162471231
327.54866065418696
424.0040382285661
488.8073764975441
491.24713958815414
419.4665500067558
301.8730650154704
173.12976174448775
61.641001480662304
-18.734553775753096
-65.31121281465165
-80.11078207027735
-66.42912908871634
-35.9484452820023
-1.7004980481718122
20.733611522434945
20.52133530757735
14.50518239331688
7.51500874948985
2.2459281195279406
0.2492933100006006
0.3283079822330216
0.4748956790963553
0.4140530354033913
-0.8247408803325598
-3.030690537084576
-5.00080764571421
-6.097321308388741
-5.557813972271488
-4.848970251713034
-6.4102840220718775
-9.846816529815055
-12.77870507471097
-12.554717997043127
-8.825548526047768
-3.694036882484699
-0.05855431417055046
0.9304078610861273
0.18575851393024678
-0.3896890564023197
-0.13568447974145786
0.14335711401339377
0.013326154260305673
-0.016960559967788696
0.0
0.0
0.0
0.0
0.0
0.0
0.0
0.0
0.025440839951683045
-0.015749091398511328
-0.19504643962945753
0.1377035940230633
0.4999326961925227
-0.09772513123987159
-1.0951675864854875
-0.058958137033620406
4.615695248345891
13.843720554580695
25.017902813301543
34.22533315386268
38.25360075380705
37.759052362361224
37.59954233409276
38.093686902675934
39.61434917216225
40.910889756363204
38.84802799838787
33.33503836317229
25.710459011979165
17.97052093148415
10.720958406244879
5.108089917888293
1.4388208372581308
0.06905370843995107
-0.2443128281056003
-0.5112397361697795
0.5241620675750218
0.1716247139592764
-0.44985866200150404
-0.1082245255090657
0.22735226813670084
0.6598465473147459
-0.5697940503402348
-5.178893525369594
-13.180912639654123
-22.186969982503864
-28.91937003634814
-31.862700228833575
-33.03136357517819
-32.600080764570635
-31.812760802259586
-32.019114281866784
-32.673845739669254
-31.433571140126507
-28.351056669808234
-22.261138780457344
-11.821644905104524
2.637636290211746
19.31148202988317
34.44366671153881
45.48593350384184
51.04038228564169
51.66401938349392
52.205411226268154
55.03553641135666
58.05855431417755
56.04455512182838
46.15345268542866
30.182662538697457
14.92192758109387
4.7134203795890715
-0.8637770897831435
-3.3845739668834147
-5.1624713958799955
-5.999461569527571
-4.921523758247535
-2.5181047247257884
-1.3861892583065436
-3.913447301114524
-8.037555525645448
-9.92946560775815
-8.173240005387521
-3.8958137030548166
0.2710997442505022
1.1587023825580005
-0.6408668730674284
-2.3696325212057565
-2.3515951002817896
-3.659846547307313
-7.024363978993036
-9.102167182661727
-0.4828375286110651
28.37609368689314
82.49400996095086
163.45860815720266
266.8192219679465
372.3475568717005
467.65042401403343
500.1620675730836
455.6131377036317
351.6111185893105
221.94104186294655
97.38107416877888
-2.3919773859286324
-68.04832413515673
-95.52025844664948
-85.25844662810029
-47.18239332346241
-1.1619329653774697
27.80778032039858
24.64315520257903
18.199488491044427
7.2846951137347435
0.9064477049320762
1.0426706151539376
4.34728765648343
7.330057881282686
5.850720150765365
0.6287521873729842
-4.8866603849822345
-8.373536142149007
-9.494009960962162
-10.748956790951373
-12.726208103377742
-14.84829721362515
-15.00767263427401
-13.218064342439934
-12.414726073491853
-13.075514874140518
-13.889217929738443
-11.953021941045694
-7.454435321039574
-2.6010230179000358
0.46964598196575746
1.015614483780564
0.12195450262313368
-0.5847354960310776
-0.04805491990787103
0.23987077668689835
-0.06784223987115479
0.0
0.0
0.0
0.0
0.0
0.025440839951683045
0.03513258850485476
-0.463992461975522
0.5532373132327149
0.5786781531863989
-0.5790819760377482
-1.5696594427264747
0.5508143760892282
6.785435455643147
16.358325481222984
25.981020325754123
33.299636559432784
37.050747072283286
39.19639251581252
41.445012787723414
42.11508951407157
37.86391169740524
31.358460088840253
25.10203257503775
22.509893659977042
21.922062188721515
20.260331134748196
15.040113070403521
7.664153991114203
1.2146991519665566
-1.1888544891668051
-0.6925561986796225
0.36142145645693474
0.6259254273810648
-0.3682864450139758
-0.47368421052829046
0.17647058823347295
1.092340826491951
-0.049266388474141276
-4.285637367072473
-10.826086956522843
-17.427783012521722
-22.68071072822844
-27.291694709918996
-31.928119531562242
-37.43868622963962
-42.40961098398505
-43.40866873065315
-40.32386593081096
-34.981962579079486
-28.69645981962764
-18.97536680576408
-6.873468838337648
6.154664153993804
17.106609234086484
25.54798761610154
31.652039305420512
39.65634674922216
48.2515816395201
55.80347287656627
59.99192354287504
58.20029613676366
50.40261138780737
37.442993673444825
21.036074841836772
4.9997307847598
-6.876160990718336
-11.251177816670031
-8.83699017364571
-2.8683537488180004
0.0986673845785989
0.005653519994937503
-4.283887468030556
-8.874007268817085
-9.53977655135871
-5.644905101629388
-0.8383362498283241
2.2822721766101868
1.9693094629172974
-0.28146453089629686
-1.7044016691422121
2.4439359267852936
-3.991923542876704
-3.4277830125192095
-0.8188181450974508
2.676268676816611
16.325346614616418
53.05384304749475
124.166913447263
231.11939695783664
353.09166778839466
454.81208776420857
493.6812491587673
446.71288194915866
334.45901198007084
206.3764975097381
82.44932023148745
-4.092340826505157
-56.62363709785885
-80.26127338807446
-79.70682460628505
-56.789339076603724
-20.567236505579977
11.712074303429079
24.256427513814316
19.38605465069305
8.9566563467372
3.3614214564429705
4.352806568847133
9.673711132054555
13.121146856920324
10.734688383366537
4.37784358594542
-1.6544622425657576
-6.114012653120259
-7.3102705613149634
-7.045901198005781
-7.487952618115577
-9.399650020190851
-11.406111185893616
-13.638174720690051
-14.842374478394422
-15.624310135953676
-15.052496971330688
-12.114954906449649
-7.797550141338635
-2.8912370440140833
0.05936195988957316
0.6642885987350882
0.07591869699679586
-0.3339615022223353
-0.011307039978064475
0.05370843989803892
0.03028671422809437
-0.016960559967788696
0.0
0.0
0.0
0.0
0.0
0.07632251985504913
-0.22533315385731534
-0.05936195988797027
0.5487952618131553
0.2370440166940631
-0.8706420783403603
-1.186431552028735
2.157221698743585
9.553237313229024
19.454973751515414
28.733880737654268
34.341634136496076
35.822990981289045
35.89191008210756
36.63844393592512
37.50881679903149
37.12047381881897
35.91762013730201
32.34405707362946
28.838067034591944
25.557275541794983
21.855431417420824
16.25077399381067
9.325885045093237
3.239870776683158
-0.2697536680603454
-1.076591735092927
-0.20191142818510022
0.4583389419858866
0.2665230852065633
-0.2519854623782757
0.11024363979109969
-0.2976174451480891
-0.0589581370316653
0.3763629021392266
0.4543007134204427
-1.0636694036864207
-5.5097590523590645
-13.688652577734011
-23.78624310135975
-33.71247812626488
-40.266253869970264
-44.52900794185234
-44.62955983308716
-42.784089379455985
-41.39009287925411
-40.22775609099479
-37.335711401268
-30.98169336384654
-21.550545160856192
-10.09516758648514
3.272176605196223
17.018441243773086
30.987346883832444
44.10607080360892
55.08762955983809
60.78018575851439
64.07322654461863
66.79876160990263
68.75878314712686
66.46089648674821
56.1144164759784
40.03203661327367
22.08493740745294
7.35415264503309
-0.8633732669298614
-3.9094090725519797
-4.721093013862186
-4.787858392785145
-3.939426571546487
-1.386189258311917
0.32790415937782336
-0.013191546638547338
-2.5625252389282425
-5.055054516087681
-6.073226544624988
-4.980481895276392
-2.454300713419952
-0.582312558892335
0.8902947906861236
-0.38417014402336536
-5.889083322107582
-12.017633598058708
-9.420918023962919
11.231255889074422
58.86000807643943
138.6373670749484
248.01884506660753
364.00430744379224
460.42132184685494
490.81666442327264
437.3358460089325
317.3369228698271
179.5661596445942
62.91815856774247
-18.931619329659256
-69.35011441647217
-91.18791223583898
-86.31188585275737
-57.31619329655038
-16.566563467479224
17.255889083350002
26.032305828517917
21.98102032574767
11.839009287916694
4.884506663072612
0.65540449589092
0.2628886794988748
1.3672095840651382
1.8457396688694336
-0.0819760398425865
-2.871180508819533
-4.294117647062965
-3.6182527931087685
-2.9213891506212324
-5.440436128680955
-9.800376901332692
-13.540584197069574
-13.988423744788152
-10.731727015749925
-5.973886121952292
-1.926369632517902
-0.4369363305957574
-0.19585408534233753
0.0052496971323590935
0.14376093686920077
0.004442051420003215
-0.18818145107059792
0.14537622829513222
-0.03392111993557739
0.0
0.0
0.0
0.0
0.05088167990336609
-0.13326154260375483
-0.06420783416414494
0.27661865661635004
0.27742630233056464
-0.4409745591585915
-0.7127473414996247
0.8330865526957955
6.268138376627851
15.689864046302622
26.93336922869989
36.57665903890737
40.88544891641258
41.082783685555775
40.139318885444816
40.28496432897819
41.07389958271754
40.75151433571524
37.56979405034341
33.49347153048569
29.658904293982125
24.932292367750463
18.55794857989323
10.496029075245694
3.0137299771124115
-0.8670076726381662
-0.9598869295993535
-0.10701305693622168
0.1954502624851855
0.30125185085311934
0.3844393592666243
0.30044420514410747
-2.3147126127319697
-6.801588369899739
-13.16839413110838
-19.129896352136893
-22.68905640059553
-23.806299636557938
-25.657558217790605
-29.678960829180557
-33.66321173778628
-35.30757840894337
-32.44972405438288
-27.260196527120247
-21.43195584869747
-15.37851662404196
-7.4954906447763365
4.6171759321546615
18.63763629021624
31.35321039171489
39.01938349710947
43.447570332477184
48.953156548653915
56.680037690129495
63.51231659712173
64.70992058151329
56.641001480692786
39.80078072419048
20.61919504643277
6.400053843039216
-0.2665230852104581
-0.9655404495873553
-0.22856373670452496
0.38363171355710957
-0.1305693902275803
-1.1084937407470676
-1.3619598869287923
-2.296809799434473
-2.982635617176525
-3.249158702384258
-2.364382824067816
-1.641001480681488
-2.3701709516742473
-3.4293983039436475
-4.756764032849176
-3.318077803208462
-0.3129627136873325
0.2491587023926809
-4.074572620800122
-8.988827567638387
-3.3199623098731275
24.892044689721207
77.60425360071714
176.8084533584481
288.3717862430965
398.85448916408734
485.45672365057277
523.87643020599
489.71678557010716
387.92394669540124
250.29479068514226
112.02019114279115
1.252658500441093
-66.09032171223065
-86.27365728900662
-73.12814645308426
-51.219679633884425
-8.695652173896676
19.676941714923245
28.867276887887705
19.625386996899554
8.001211468556368
2.3918427782898877
3.936734419163768
9.588908332218619
11.641809126406555
7.577735899855219
0.7198815452903653
-3.8394131107886302
-4.384439359269049
-3.799030825142409
-3.7492260061874427
-6.602369094089404
-10.62552160452499
-13.229775205278582
-14.21119935388452
-13.677883968231416
-13.29707901467089
-12.798896217525812
-11.46076187912367
-8.992461973349581
-5.347422264100288
-1.8345672365038672
0.4038228563759185
0.5689864046305473
0.12760802261312887
-0.3747476107160725
-0.0690537084396099
0.18414322250712092
-0.05088167990336609
0.0
0.0
0.0
0.0
0.0
0.09328307982283783
-0.2895409880209871
-0.03553641136203167
0.705074707230358
0.15304886256859979
-1.1274734149943886
-1.1387804549769425
2.641809126390792
11.26773455377268
22.25265850047405
31.266926908069234
35.55862161798656
36.42320635347699
36.95948310673971
38.92529277157119
40.00255754475948
39.39790012114769
38.06528469511239
36.29640597657503
35.11912774263039
32.3292502355677
25.706420783420274
16.170413245389383
6.990712074299467
1.1682595234852649
-0.8391438955455498
-0.5201238390080752
0.4563198277050491
0.22694844528307478
-0.43289810203436624
-0.28227217660803
0.8480279983842263
0.8968905640087838
-2.1442993673398183
-8.73832278906839
-16.741553371924315
-23.003769013330825
-26.421321846816046
-29.653250773989967
-33.610580158833564
-38.314712612735235
-40.70494009961475
-38.56373670750212
-32.00309597522899
-26.247408803332956
-21.890294790682475
-17.678826221567626
-9.541122627546347
3.528200296134036
19.33113474222816
34.257504374750354
46.77762821375884
55.333288464127364
60.234351864315876
61.71261273387986
60.58648539507273
55.81787589177664
46.98223179432355
33.32521200700231
17.925561986809228
3.0448243370531007
-6.737245928125531
-9.801588369905437
-7.269080629962408
-3.684210526312282
-2.103378651228527
-2.640059227350415
-4.482972136224316
-5.847893390769641
-5.114820298830544
-3.053170009419797
-2.256696729032306
-1.9484452820016305
-2.8857181316526193
-0.3436532507792658
3.805088167995044
4.1325885045215
-1.213083860538716
-5.457935119131507
3.155337192074751
33.65876968635765
87.11280118453757
165.65351998921253
265.40018845064367
370.2076995557809
457.7115358729594
487.60061919511116
435.4032844259477
318.77009018710527
180.15574101490208
62.27042670611282
-16.94077264774323
-62.107013056932885
-82.34244178220723
-78.2768878718645
-55.977520527670784
-22.762417552824093
5.981289541009543
16.432494279183434
16.820837259385854
12.844932023142729
11.555391035127379
12.265580831878454
10.502759456190548
5.7490913985756364
-0.006864988561318147
-2.994211872397429
-2.9410418629738295
-0.3497105936155157
-0.6836720958331695
-5.641539911155686
-13.102840220761129
-17.896352133537064
-18.287118050881677
-17.53452685421574
-17.240678422396254
-16.796877103246683
-14.284156683273107
-8.605868892179721
-2.7637636290178937
0.6796338672805232
1.0592273522685585
0.052496971326495334
-0.5891775474511252
-0.0629963655936846
0.26773455377678707
-0.07632251985504913
0.0
0.0
0.0
0.0
0.0
0.008480279983894348
0.06541930273294913
-0.31700094225464515
0.14214564544303682
0.622291021673951
-0.09166778839434842
-1.1214160721494162
-0.6380401130740636
3.6922869834378758
12.268676807105376
22.110378247412672
29.127204199763963
31.306636155608548
30.754341095702596
30.75151433570665
32.73428456050532
34.6187912235875
33.4871449724092
29.860277291692135
27.118320096912342
26.084533584600464
24.018172028541535
18.66132723112591
10.65769282541379
3.004442051415416
-1.2231794319604106
-1.4901063400192793
0.28106070803972316
0.829452146993781
-0.21685287387447988
-0.15022210257154356
0.13205007403506314
-0.15627944541683303
-0.11185893121624813
0.21281464530830818
0.20958406245715988
-0.3694979135812839
-2.911158971595243
-8.541257235156655
-16.647731861621867
-25.577870507473133
-31.73684210526701
-34.12397361690981
-33.15749091398559
-31.289944810873475
-30.30932830797744
-32.05142011037723
-33.354018037424034
-30.855969847895807
-24.924081303004
-14.783147126127801
-2.2521200699957444
11.298155875623255
24.296002153722323
35.86660384977827
45.74895679095673
52.48674114955059
56.79687710324233
60.07766859603758
64.07241889890848
64.95032978866938
59.8050881679974
47.298559698484944
29.211603176737725
12.389554448774888
1.1324538968846174
-3.4357248620276404
-4.374209180237048
-4.324404361285444
-4.04859335038442
-3.4106878449322404
-3.2152375824457375
-4.18373939964824
-6.050477857045443
-8.397092475436063
-8.482568313370262
-5.370305559297076
-0.6148876026370412
2.828375286045026
2.82097186700998
-0.3668057612080893
-4.123435186432665
-8.517431686629303
-13.619329654050485
-16.60519585408197
-9.651500874957563
18.434109570587978
73.32198142413539
153.98546237715823
254.05491990846076
353.11145510834024
448.47166509626567
495.02490240951875
480.06299636562744
410.30205949657153
308.31309732129176
197.9061784896905
93.62525238928976
2.1327231121320933
-66.58312020462115
-98.68905640062609
-88.96217525914305
-47.822587158421314
-3.1620675729900913
15.12087764168086
24.76537892045392
19.08520662269071
10.314039574634062
3.527123435181531
0.4840489971698216
0.7030555929454159
2.8422398707799346
3.4501278772426613
1.0255754475723757
-3.1328577197497127
-5.793511912777923
-6.1862969444086655
-5.172836182526072
-5.286310405165974
-7.235832548120712
-9.667249966348535
-11.441782204875725
-10.759860008078853
-7.763225198545954
-4.4228025306217225
-1.8307982231778985
-0.546910755148268
-0.1990846681927098
-0.16274061111925786
0.1393188854492743
-0.0028267599947610356
-0.029882891371730735
-0.014941445685813598
0.027863777089888707
-0.008480279983894348
0.0
0.0
0.0
0.0
0.0
0.0
0.025440839951683045
-0.015749091398511328
-0.2035267196133519
0.16556737111295194
0.4849912505067093
-0.13608830259549642
-0.993808049535311
-0.27015749091810193
4.768340288054954
13.984250908599774
24.191950464399895
31.523489029485187
33.66967290348916
32.19450800915031
30.88127608022188
31.033113474221963
30.93336922870072
29.010634001886473
25.354556467895623
21.060438820835927
16.85179701171117
12.190738995828148
7.468972943869167
3.158567774934949
0.13931888544647866
-0.4615695248351861
-0.16112531969148286
-0.10539776551329949
0.06582312558755932
0.49710593619519533
0.32023152510479963
-1.333826894600319
-5.402342172563939
-12.281599138510028
-19.967155741017233
-25.560506124650207
-27.94898371247956
-28.55283349037516
-28.55916004845662
-29.2282945214669
-31.24646655000634
-32.59604253600929
-31.521335307580742
-26.589850585543598
-19.071342037959763
-9.333557679366422
2.973616906716571
15.57800511509091
26.896082918296642
34.942522546775265
43.74666846143667
49.72230448243143
56.335442186022256
64.2218333557644
70.07861084937836
68.08614887603774
54.49683672096652
33.62282945214466
14.0823798626905
1.5115089513975277
-2.6987481491462666
-2.216987481485854
-1.5107013056887828
-3.9800780724233964
-3.510835913313739
-3.2894063803987597
-4.117916274057599
-6.567909543681283
-8.04361286849399
-5.803876699423177
-2.380401130700127
-1.263157894732722
-2.7668596042544147
-5.260196527131104
-3.044689729429052
-11.019787319967975
-11.46951137434241
-11.54704536275495
-12.143222506382589
-2.4524162067609283
33.395611791600544
109.13756898636188
224.47772243905712
357.4376093686993
462.9974424552884
505.0752456589643
463.8097994346792
360.9395611791514
242.20716112530317
122.06515008746803
29.20554583388839
-38.07120743033976
-77.89702517163498
-85.43384035538338
-63.071745860829125
-23.555660250364422
13.755956387154823
32.6743841701683
27.228832951947144
13.273388073754182
2.1918158567653423
-1.3351729707975706
2.286310405169865
7.387804549743253
9.468569121016856
7.993404226681612
3.2666576928238524
-1.6794992596608582
-5.419033517298176
-8.153183470183146
-10.991519720015399
-13.38228563736797
-14.559967694172807
-14.81181854893045
-14.278233948039096
-14.942926369630754
-15.665634674922664
-15.505317000945322
-12.886929600218567
-7.751245120473216
-2.9174855296782294
-0.04522815991147022
0.554044958944844
0.14335711401146944
-0.23542872526695907
-0.13528065688522722
0.10701305693961069
0.02180643424420002
-0.016960559967788696
0.0
0.0
0.0
0.0
0.05088167990336609
-0.13326154260375483
-0.089648674115828
0.3432494279182276
0.3561717593240563
-0.6986135415255771
-0.9400996096397475
1.3200969174819872
7.0547853008463415
14.756225602369907
22.845874276486835
29.179566563468207
34.11751245120274
38.33194238793772
41.55175662942839
41.20837259389273
37.31040516893134
33.79580024229172
30.549602907521173
29.246062727148473
28.707766859606863
25.60600349980245
19.06488087225973
10.608022614078038
3.874276484045934
-0.04724727419829566
-1.158163952080682
-0.31013595369306723
0.5132588504537503
0.15829855969824602
-0.7717054785346982
0.9574639924625228
0.789877507069766
-1.8220487279540827
-7.1312424283207125
-12.745591600488316
-16.147664557819635
-16.024094763763642
-16.20554583388959
-18.736976712875993
-25.020191142819275
-30.040920716116087
-32.12370440167402
-29.019114281869047
-23.33301924888604
-17.84425898505717
-11.503432494281084
-3.4739534257661324
5.855835240274476
15.437205545837575
22.594831067440477
29.105397765512677
35.7089783281681
44.57262081033361
53.329519450800525
59.11199353884268
54.8904293983125
41.580966482705655
24.70722842912502
9.61731053976767
1.4727419571913074
-2.235563332882672
-4.232467357649229
-5.987212276214316
-7.48526046574454
-7.825144703189904
-8.182258715841009
-8.806972674652059
-9.524296675194472
-8.188450666311489
-4.418225871585151
-0.08184143222130284
1.547045362771269
0.31027056131451003
-2.3799973078515264
-3.5828509893705363
-3.020325750436194
-4.155067976840101
-8.837932426968088
-13.364786646923426
-9.758917754750152
10.899582716377735
52.647731861615576
120.42226410012935
215.45685825815073
329.0076726342559
435.44272445821605
503.6776147530405
502.821106474679
428.1284156683486
307.3630367478615
181.97738592001917
71.46035805624496
-7.208237986277634
-55.65351998923428
-75.73886121955275
-69.92663884777187
-42.884775878318926
-8.494009960951493
17.24121685289542
23.698613541536204
18.446493471526665
11.53466146182822
8.305020864169226
11.207026517697818
18.086418091277974
15.107820702657927
8.520662269483847
1.4498586619936178
-1.7279580024286252
-1.2507739938079558
-0.30313635751269086
-2.2330057881237595
-6.552968097994929
-11.147529950198926
-13.766186566161192
-14.948579889619415
-16.417149010631796
-17.778705074708274
-17.248485664291852
-13.884102840223086
-8.464800107685118
-3.4526854219920176
-0.6458473549584671
0.16314443397491601
0.00969174855187685
-0.09489837124846118
-0.031094359940747204
0.019383497106127415
-0.0040382285637135945
0.01938349710599436
-0.008480279983894348
0.0
0.0
0.0
0.0
0.07632251985504913
-0.242293713825104
0.021806434243490214
0.4268407591879677
0.2584466280818254
-0.761609907119238
-1.3237313231966055
2.232736572885537
9.483779781934349
18.31753937273127
26.039036209453116
31.19423879391534
35.12801184546738
38.65890429398303
40.39063130973596
39.0397092475466
35.29115627944351
31.883833624976774
31.528738726609056
32.01669134473463
28.54758379324871
20.800242293716614
10.779781935654276
3.00753802664712
-0.3666711535895272
-0.8435859469642414
0.20312289675891754
0.3359806165043843
-0.2499663480969515
-0.037555525644257876
0.4446089648672768
0.593619598872575
-1.924619733475438
-5.361959886932047
-7.8255485260499995
-9.436397900121205
-12.026652308515814
-17.861757975496914
-25.8799300040392
-32.637501682600764
-34.831202046039344
-33.117781666441424
-29.221564140526052
-25.891102436397762
-21.44272445820814
-13.888544891641855
-5.3137703594006735
3.3038093956151857
10.769820971867796
18.35926773454932
28.997711670475567
41.810472472741864
52.23785166240729
57.34190335173388
55.424417822053584
45.742495625254534
31.955714093416542
17.83793242697147
7.155067976844592
0.3242697536664402
-3.0456319827708564
-3.633059631174147
-3.32319289271694
-3.1425494682995803
-3.4736842105253865
-3.946291560100275
-5.379997307849054
-5.753668057615862
-3.6548660654204728
-1.1791627406089404
-0.2895409880157686
-1.8901601830636618
-4.983039440035143
-5.857450531705535
-3.444743572490025
0.7197469376775454
2.91196661731718
-0.4401669134388029
-8.319962309861896
-14.730380939564096
-8.028267599946311
13.893121550666491
66.27581101088742
146.8159913850956
249.00457665902314
359.6909409072539
453.4287252658707
502.78382016425326
494.2657154395254
427.3180778032165
322.87494952213547
207.20002692150996
98.96823260195552
10.223448647187032
-48.82218333558292
-79.2778301252106
-70.54516085612082
-38.05276618656238
-2.3549602907321443
20.358998519339753
23.475030286722443
13.738726611912698
7.662538699676985
7.750033651900776
10.86108493741361
11.16206757303195
7.502355633330561
2.7851662404049184
0.7721093013811089
1.6493471530467543
3.5050477857080287
2.764840489977488
-2.321308386051736
-9.424687037287566
-15.545564678966064
-17.247139588105032
-14.929465607753293
-11.819356575578789
-10.234217256693489
-10.642482164489913
-11.501413379998196
-11.951137434381437
-10.223583254813773
-6.862296405976015
-3.6435590254397865
-1.2167182662527685
-0.06905370843955105
0.4357248620275819
0.15627944541614375
-0.23542872526676206
-0.11589715977926235
0.1647597254011266
-0.04240139991947174
0.0
0.0
0.0
0.0
0.09328307982283783
-0.3319423879404588
0.06986135415183437
0.843585946967577
-0.25481222236966306
-1.5276618656635732
-0.25440839951886257
3.6049266388446934
9.932292367749598
15.587696863646961
19.01224929331261
20.9958271638152
23.79983847085192
29.440839951539584
35.54664153991475
38.277830125188835
36.886929600216384
33.407053439224704
28.231390496699387
23.927042670613137
20.595907928390215
16.011845470455253
10.859469645983106
5.495625252388269
1.494548391436892
-0.41836047920453034
-0.6513662673307827
0.14618387400897703
0.19343114820338778
0.18656615964485335
-0.23542872526648095
-0.009287925696296384
-0.15547179970489894
0.2487548795255241
0.388073764975583
-0.7822048727949293
-3.6305020864170814
-8.31982770224643
-14.900390362093402
-22.203392111994024
-28.29559833086744
-31.967828779111745
-32.927715708711766
-31.10095571408958
-31.359402342168334
-32.474088033380625
-33.48701036479041
-30.28375286041723
-21.73886121954691
-9.906986135412978
2.4346480010801543
13.879391573563463
24.927984923943313
37.03109435993858
48.94023421725874
57.65836586351156
61.26383093283133
61.620675730244784
58.92596580966288
53.77951272042334
43.682191412039096
29.514335711403472
14.447031902001646
3.3696325211935676
-1.2716381747255205
-0.6049266388457509
0.400188450672193
-1.2253331538523204
-5.278233948043332
-7.831202046039719
-7.568851797014283
-5.23892852335452
-2.3969578678131573
-0.7589177547422835
-1.1717593215763187
-2.9340422667938255
-3.7350922062209295
-2.8816799030820635
-2.622425629292641
-0.9994615695256996
0.08116839413326149
-0.7147664557752775
-3.6895948310609263
-4.207699555791184
5.408668730646619
36.11199353882355
94.37582447163923
186.74451473950265
304.4117647058702
414.6415399111702
488.1335307578883
490.1926235025482
414.33046170415474
293.84520123837547
163.90927446489457
60.30932830795859
-13.302732534657764
-64.27688787184547
-93.50545160856964
-95.32103917083572
-72.61704132455237
-34.41553371919915
0.9356575582436591
15.757840893804696
18.664827029207903
15.102167182652009
12.421860277283601
14.16637501683299
10.171220891106612
4.492394669539314
-1.261273388077832
-3.931484722040159
-3.2606003499805105
-1.8859873468800583
-2.6294252254636077
-5.936330596311221
-9.961367613410221
-12.183335576795917
-12.574639924618683
-12.3791896621329
-12.151837393996935
-10.953291156281967
-7.815452954638292
-3.980078072417717
-0.99273118858319
0.30609772513235006
0.21564140530293163
-0.17162471395997753
-0.06986135415273598
0.03634405707391611
-0.0040382285637135945
0.01938349710599436
-0.008480279983894348
0.0
0.0
0.0
0.0
0.0
0.03392111993557739
-0.07753398842397743
-0.0686498855840891
0.1332615426032226
0.3250773993823779
-0.1259927311864225
-1.0584197065567928
0.5302194104158002
5.1250504778552095
11.989904428590151
20.12989635213406
27.995961771437415
33.88167990308348
37.2922331403974
37.986000807647464
36.49952887333339
34.56010230178661
33.392111993536254
32.265311616640076
28.600349979814638
20.521066092342622
11.211872391974829
3.786646924211544
0.08291829317283206
-0.3654596850172874
0.24471665096474235
0.18737380535798615
-0.03957463992508044
-0.09207161125369355
0.18575851393262888
-0.2200834567242002
0.1449724054388572
-0.2402745995435075
0.06380401130553132
0.5516220218070648
-0.6210795531007299
-4.0170951675842295
-9.596984789338073
-16.19868084533728
-21.62834836451962
-24.95302194104334
-25.978731996229854
-26.481760667652754
-26.63763629021609
-25.29007941849666
-22.99730784762015
-23.190604388204644
-24.020191142818152
-22.85960425360542
-16.507336115230686
-4.214968367211974
11.176605195858102
25.0589581370364
35.181316462513244
43.01924888948381
50.922196796333246
61.08507201507883
66.45080091533436
68.10472472741992
66.08722573697612
59.92717727823496
49.3505182393362
34.44730111724784
16.92152375824417
1.852470049797282
-5.663480953029837
-5.622425629293184
-1.222910216712852
1.477184008622141
-0.8725265850044885
-3.3344999326973013
-5.94090725535442
-6.204468972946025
-4.678422398706718
-3.3025979270392996
-3.8128954098781453
-4.739130434783488
-4.754341095711437
-1.9714631848215727
2.0313635751779073
5.809261004193724
-6.6677883968234095
-13.97523219814897
-14.247543410958597
-5.1569524835078004
19.756898640464858
65.62740611117236
139.7334769147618
243.15452954634148
360.28900255754235
457.0259792704614
497.27702247953135
455.898371247849
351.4937407457224
226.93390765916033
99.24188989093761
1.8281060707907417
-63.8174720689225
-97.67061515682676
-99.29748283754374
-73.88046843452322
-33.832817337453974
3.093013864607409
21.376362902160068
18.58069726746418
10.283887468020598
4.0734957598496475
3.5276618656576053
7.0139991923577885
9.70372863104516
9.715035671020122
7.915466415398311
4.681114551082911
0.7301117243253209
-4.26436936330377
-10.090994750304406
-13.943868622968047
-14.073495759862665
-11.678557006325708
-9.485395073358006
-8.896621348764782
-10.702651770090364
-12.095032978869021
-11.670884372058591
-8.722842912909883
-4.627675326421866
-1.4155337192063218
0.10943599407836052
0.1881814510695362
0.05976578274266691
-0.09530219410462606
-0.10499394265726589
0.08561044555164123
0.002422937138205662
-0.008480279983894348
0.0
0.0
0.0
0.0
0.0
0.05936195988726044
-0.21200699959700964
0.13487683402878958
0.18656615964510495
0.11508951406805723
-0.5714093417684357
-0.43935926773579503
1.616099071205679
6.115224121684797
12.122762148336708
19.8083187508408
27.599946156952345
34.201911428188
38.25171624714243
38.94036882487825
36.27244582043157
33.978597388610474
31.398976982094762
30.160048458742462
28.60586889218102
25.030959752324538
18.900524969714663
11.787993000403723
5.046574236099311
0.8351056669782814
-0.7357652443136152
-0.653789204468008
0.08561044555268096
0.39009287925664365
0.13043478260663596
0.5249697132874038
-1.1880468434491465
-4.848566428858806
-9.87198815453133
-14.176201372998957
-18.266119262350607
-21.71032440435929
-25.867142280251777
-30.212410822454437
-32.64598196258096
-33.072553506526965
-33.179835778703406
-32.10634001884555
-28.664961636830483
-22.522815991387855
-13.197334769149442
-1.6976712881924847
8.665634674926045
17.370843989771622
24.85489298693949
34.73966886525396
46.33786512316504
56.689594831068405
63.66132723112316
65.90738995827572
60.60398438551923
48.95934849912613
34.419033517297734
19.206622694843347
6.240139991919382
-1.3709785973939261
-2.6335980616527586
-0.18077803203446732
1.6313097321350454
0.7311885852781023
-2.9640597657816534
-7.131780858800033
-8.97980885718708
-6.814241486070102
-2.8461434917173674
-1.3515951002779272
-2.634944137837118
-4.7177278233978654
-5.168124915874403
-3.2180643424426294
-1.1553371920835185
-0.5210660923378558
-2.817472068916625
-6.1523758244671924
-8.353344999321868
-3.347153048859848
16.81491452415383
64.06111185891093
144.90738995824267
257.18616233676585
382.01628752187685
484.1908736034696
537.0973213084307
517.646116570238
431.10849374075406
310.0407861084824
179.9656750571821
70.83604792029945
-12.545564678962004
-67.47274195720152
-89.5514874142083
-76.5636020998974
-40.517027863776235
-0.8590658230993328
21.45860815725117
19.017498990444167
10.083052900779116
4.836317135532509
7.971328577192621
16.707363036762665
15.520527661870798
11.154125723515639
4.904563198274589
-0.9695786781549758
-5.016018306637358
-7.165971193970702
-8.348499125051607
-8.857719746936295
-10.441512989631535
-14.306366940366162
-19.375689864047338
-23.159779243510236
-22.433032709654363
-18.265446224254518
-14.055592946558795
-10.373939965001593
-6.802934446089473
-4.123435186432242
-1.8830259792706183
-0.04603580562534404
0.5689864046313646
0.16435590254345317
-0.20756494817697688
-0.19504643962874776
0.20958406245880395
-0.05088167990336609
0.0
0.0
0.0
0.09328307982283783
-0.34042266792435316
0.19948849104845529
0.4518777762836273
-0.11024363978839091
-0.8322789069857858
-0.45914658769860694
2.6930946291536344
8.85489298694046
17.86189258311889
27.68690267869252
35.62552160452685
38.695921389154826
37.173509220622805
34.05397765513309
31.019248889482146
30.66307713016422
30.881141472609457
29.73549602907771
26.471126665770218
21.250370170951058
15.548122223717915
9.849912505048112
4.786243101358984
0.8330865526964286
-0.5152779647335702
-0.41149549064372515
-0.09489837124726258
0.34163413649214813
0.2980212680031904
0.03674787993014447
-1.0535738322784032
-3.231928927175776
-7.389419841162775
-12.064477049401017
-17.013326154260966
-21.233948041459517
-24.87198815453045
-27.555929465608692
-28.923139049667846
-31.025306232330134
-33.22048727958056
-32.864584735499264
-28.093148472206405
-19.538430475166333
-8.433436532507471
3.8593350383666425
13.71072822721912
22.036747879929234
29.76026383093192
37.31727015749238
42.866738457394895
47.89365998114971
53.42293713824317
53.79499259658848
45.728227217667104
31.36222910216834
15.414187643016794
2.065957733200013
-4.5987346883888005
-4.78880064611409
-4.081168394125913
-5.463050208640255
-7.64638578543755
-8.145645443532812
-8.165701978731633
-8.387939157356524
-7.3585946964586855
-5.974962982905456
-3.9851931619369987
0.14739534257561304
3.5529680979979426
3.475837932431233
-0.850450935522971
-6.4271099744260365
-11.81720285368149
-15.1317808587937
-13.568717189386632
-3.542872526579502
21.583927850308903
74.58688921790595
159.05855431411845
289.9715977924342
404.91883160589464
