6.641639000000001 0.0 2.942175 1.630406 2.267685 2.267686 2.9421740000000005 2.267685 1.5931960000000003 2.9421749999999998 1.9490460000000003 2.267685 2.267685 2.2304740000000005 2.267685 1.9490450000000001 2.5863250000000004 2.267685 1.274556 2.267685 2.5863250000000004 1.9490450000000001 1.949047 2.9421740000000005 1.3117670000000001 1.9862560000000002 2.904964 2.586326 1.630406 2.267685 2.5863240000000003 1.274556 2.6235350000000004 2.5863250000000004 2.267685 1.9490450000000001 2.267685 2.9049640000000005 2.2304740000000005 2.267685 2.9421749999999998 2.2676860000000003 1.9118350000000004 2.267685 1.949046 1.949046 2.267685 1.630406 1.630407 3.2236030000000007 1.9490450000000001 2.5863250000000004 1.949046 1.9118350000000004 2.3048960000000003 2.9793850000000006 2.5863250000000004 3.2980240000000007 1.630406 2.5863250000000004 1.5931950000000001 1.9490460000000003 2.586325 2.267685 1.5931950000000001 2.3048960000000003 2.5863250000000004 2.5863240000000003 1.3117670000000001 1.5931960000000003 2.9421740000000005 3.260814 1.274556 1.9490460000000003 2.5863250000000004 1.5931950000000001 2.267685 1.5931950000000001 2.6235350000000004 2.6235350000000004 2.267685 1.3117670000000001 1.5931950000000001 2.9049640000000005 2.267685 1.274556 2.623536 2.267685 2.2676860000000003 2.942175 1.9862570000000002 2.9421740000000005 1.949046 1.9490450000000001 1.9118340000000003 2.267685 1.630406 2.3048960000000003 1.949046 2.9421740000000005 1.9118350000000004 2.9793850000000006 2.5863240000000003 1.630406 1.9490460000000003 2.623536 2.5863250000000004 1.9118350000000004 2.6235350000000004 1.3117670000000001 2.5863250000000004 2.942175 2.6235350000000004 1.311768 1.9490460000000003 2.2676860000000003 0.318639 3.2608140000000003 2.3048960000000003 1.9862560000000002 3.2236040000000004 1.630406 2.267685 2.5863250000000004 1.5931960000000003 2.5863250000000004 2.267685 2.6235359999999996 1.3117670000000001 2.267685 0.993128 1.9118350000000004 2.5863250000000004 1.274556 1.9490450000000001 0.955917 2.5863250000000004 1.9490460000000003 2.267685 1.9490450000000001 1.9490460000000003 1.9490460000000003 1.9118350000000004 2.304895 2.9421740000000005 1.274556 1.949046 1.2745570000000002 2.9049630000000004 1.630406 1.311768 2.5863250000000004 1.9118350000000004 1.5931960000000003 2.6235350000000004 1.9490460000000003 2.5863250000000004 1.9490450000000001 2.2676860000000003 1.630406 1.630407 1.9490450000000001 2.267685 1.5931960000000003 1.274556 1.9118350000000004 1.9490450000000001 1.9490450000000001 2.9049640000000005 1.3117670000000001 1.274556 2.6235350000000004 1.274556 2.6235350000000004 1.949046 2.9421749999999998 2.267685 2.5863250000000004 2.9049650000000002 1.630406 1.630406 1.630406 2.6235350000000004 1.9490460000000003 2.267685 1.274556 2.267685 2.267685 2.267685 2.2676860000000003 0.993128 0.993128 2.979386 1.9490460000000003 1.9490460000000003 1.9490450000000001 2.2676860000000003 2.267685 1.3117670000000001 1.3117670000000001 2.267686 2.267685 1.630406 1.9490460000000003 2.2676860000000003 1.9118350000000004 1.9118350000000004 2.9421749999999998 2.267685 1.9490460000000003 1.9118350000000004 2.267685 1.9118350000000004 2.9049650000000002 1.3117670000000001 1.5931960000000003 2.9421749999999998 2.9049640000000005 0.637278 1.274556 1.3117670000000001 2.8677530000000004 1.348978 2.9049640000000005 2.3048960000000003 2.267685 1.348978 1.5931960000000003 0.993128 2.267685 1.348978 2.267685 1.311768 1.630407 1.6676170000000001 2.267685 1.667618 0.993128 1.630407 1.9118350000000004 1.3117670000000001 0.955918 1.348978 0.955917 1.3117670000000001 1.2745570000000002 0.993128 0.955917 1.348978 0.955917 1.348978 0.955917 1.3117670000000001 2.2304740000000005 1.311768 4.887024 7.067713000000001 2.5491140000000003 1.667618 1.5931960000000003 1.348978 1.5931960000000003 0.993128 1.5931960000000003 1.5931960000000003 3.579454 1.2745570000000002 2.586325 2.267685 1.949047 2.6235359999999996 1.274556 1.6676170000000001 1.5931960000000003 0.955917 4.125536 8.098052000000001 2.9421740000000005 2.5863240000000003 2.5863240000000003 2.069055 7.973847000000003 2.780756 1.274556 0.993128 1.9118350000000004 1.9118350000000004 1.5931960000000003 2.623536 1.274556 1.348978 1.9118350000000004 1.6676170000000001 2.5863240000000003 1.6676170000000001 2.069055 3.099396 1.9118350000000004 1.667618 2.267685 1.348978 1.9490460000000003 1.6676170000000001 2.5863250000000004 1.3117670000000001 2.267685 1.667618 1.5931960000000003 0.993128 5.880153 6.711864 2.9049640000000005 2.9049630000000004 1.9118350000000004 1.3117670000000001 1.9490450000000001 1.949046 2.267685 1.9490450000000001 0.955917 2.267685 2.586325 1.9490460000000003 1.5931950000000001 1.6676170000000001 0.955917 2.7807560000000002 2.267685 1.949046 2.3048960000000003 0.993129 1.630406 1.348978 1.274556 0.993128 2.5863240000000003 1.3117670000000001 2.5491140000000003 2.3048960000000003 1.630406 1.630406 2.267685 1.630406 1.949046 2.9049630000000004 0.955917 1.3117670000000001 0.955917 1.3117670000000001 3.3808240000000005 2.9421740000000005 1.5931960000000003 1.6676170000000001 1.5931960000000003 0.993128 1.3117670000000001 0.637278 1.274556 1.274556 2.5863240000000003 1.9490460000000003 1.949046 2.267687 1.9490450000000001 1.311768 2.267685 1.3117670000000001 5.880153 7.067713000000001 1.9118350000000004 0.993128 1.9118350000000004 0.993128 1.5931960000000003 1.630406 1.5931960000000003 0.637278 1.6304060000000002 1.3117670000000001 1.5931950000000001 0.993128 0.955917 1.3117670000000001 1.9490450000000004 0.993128 0.955917 1.6304060000000002 0.955917 0.637278 3.2236020000000005 1.949046 1.9118340000000003 0.955917 1.949045 1.6304060000000002 1.9118340000000003 2.9049640000000005 1.5931960000000003 1.630407 4.175324 2.743545 2.2304740000000005 1.949046 1.9118350000000004 1.4689880000000002 2.2676860000000003 1.630406 2.6235350000000004 1.274556 3.616664 0.993128 1.9118350000000004 0.955917 2.267685 1.6676170000000001 1.5931960000000003 0.993128 2.267685 0.674489 1.6304060000000002 1.6676170000000001 0.955917 1.667618 1.274556 1.3117670000000001 1.5931960000000003 1.667618 0.955917 1.348978 1.9118350000000004 0.993128 1.5931960000000003 1.667618 1.274556 1.3117670000000001 2.267685 1.274556 2.9421740000000005 1.986257 1.9118350000000004 2.9049640000000005 2.9049640000000005 1.9118350000000004 2.267685 1.9490460000000003 1.9118350000000004 2.3421060000000002 2.743545 0.674489 3.2608140000000003 1.9862560000000002 2.267685 1.5931960000000003 1.5931960000000003 2.6235350000000004 2.9421740000000005 2.2676860000000003 1.5931950000000001 2.6235359999999996 1.9118350000000004 1.348978 4.175323000000001 2.6235350000000004 2.5863240000000003 1.9490450000000001 2.9049650000000002 1.630406 1.9490460000000003 1.593196 1.5931960000000003 1.5931950000000001 1.2745570000000002 1.6304070000000002 1.5931960000000003 1.0303390000000001 0.955917 1.6676170000000001 4.8870249999999995 7.067713000000001 1.3117670000000001 1.9862560000000002 1.630406 3.579454 1.9118350000000004 2.267685 1.274556 2.9049650000000002 3.2236040000000004 1.9490450000000001 1.5931960000000003 2.2676860000000003 4.605595 6.393223000000001 1.667618 2.424906 1.949046 2.3876950000000003 6.943507000000001 2.143477 2.2304740000000005 0.955917 2.267686 2.5863240000000003 2.5863250000000004 3.260814 2.2676860000000003 1.3117670000000001 2.9793850000000006 2.2676860000000003 3.260814 1.9490450000000001 0.955917 1.6676170000000001 1.3117670000000001 2.462117 0.955917 1.9490470000000002 2.9421749999999998 1.949046 1.630406 2.3048960000000003 2.6235359999999996 2.267685 1.949046 2.304897 0.993128 2.7807560000000002 2.267685 2.267685 2.267685 1.5931950000000001 1.5931960000000003 2.267685 3.579453 2.267685 1.949046 2.267685 2.267686 1.2745570000000002 2.6235350000000004 1.3117670000000001 1.630406 1.5931960000000003 1.949046 1.3117670000000001 2.1062659999999997 2.7807560000000002 0.637278 2.942175 2.267685 1.630406 1.3117670000000001 2.5863250000000004 2.267685 1.3117670000000001 2.267685 1.6676170000000001 2.5491140000000003 1.986257 2.5863240000000003 2.9421740000000005 1.9490450000000001 1.3117670000000001 1.9490460000000003 1.5931960000000003 2.6235350000000004 2.9049650000000002 1.3117670000000001 2.267685 1.274556 1.9118350000000004 1.630407 1.9862560000000002 0.955917 2.143477 0.993128 2.462117 1.9490450000000001 2.267685 2.9421749999999998 1.6304070000000002 1.9490450000000001 2.2676860000000003 2.267685 2.5863250000000004 2.267685 1.5931960000000003 1.630407 2.304897 4.605595 6.236001 1.667618 2.5863240000000003 3.616663000000001 2.7063330000000003 4.642807 3.0993950000000003 2.9793850000000006 1.911836 1.5931960000000003 1.9490460000000003 1.5931960000000003 1.9118350000000004 1.9118350000000004 0.637278 4.568385 6.074584000000001 2.2304740000000005 2.304895 1.5931950000000001 2.267685 1.9490460000000003 2.267685 1.9118350000000004 1.949046 2.2676860000000003 2.267685 1.9490460000000003 1.2745570000000002 1.630407 2.3048960000000003 5.2056629999999995 7.0677140000000005 2.267685 2.5863250000000004 2.2304740000000005 1.630406 2.9049650000000002 1.9490450000000001 1.9490460000000003 1.949046 2.2676860000000003 1.3117670000000001 1.9490460000000003 0.0 2.623536 1.9490450000000001 2.267685 2.5863250000000004 1.3117670000000001 1.9490460000000003 1.9490460000000003 1.9118350000000004 0.318639 3.2608140000000003 1.9490460000000003 1.9490450000000001 1.3117670000000001 2.267685 2.9049650000000002 1.949046 0.955917 2.9421749999999998 2.3048960000000003 1.9490460000000003 1.9490460000000003 2.6235359999999996 2.267685 1.3117670000000001 1.949047 2.267687 0.674489 0.993128 2.267685 2.267685 1.9118350000000004 0.0 2.3048960000000003 2.267685 1.630406 2.9793850000000006 2.9421749999999998 2.267685 1.949046 2.9421749999999998 1.5931960000000003 2.6235350000000004 2.9049650000000002 1.9490460000000003 1.274556 3.298025 1.5931960000000003 1.274556 3.616664 1.5931960000000003 1.9118350000000004 1.9118350000000004 1.5931950000000001 1.5931960000000003 2.267685 2.267685 0.318639 2.942175 2.3048960000000003 2.9421749999999998 2.904964 1.630406 0.0 2.623536 1.9490460000000003 1.949046 1.986257 2.9421749999999998 2.267685 1.2745570000000002 1.986257 3.260814 2.586325 2.6235350000000004 1.274556 3.2236040000000004 1.630406 1.9490450000000001 2.5863250000000004 2.5863250000000004 1.3117670000000001 1.9490450000000001 2.6235359999999996 1.630406 1.5931960000000003 3.298025 1.9118350000000004 2.586325 1.9118350000000004 3.616664 2.5863250000000004 1.5931960000000003 3.260814 2.267685 1.274556 3.653875 3.260814 1.9118350000000004 2.267685 0.318639 3.2608140000000003 2.2676860000000003 1.949046 2.5863250000000004 1.274556 2.5863250000000004 2.267685 1.5931960000000003 1.9490460000000003 2.267684 2.6235359999999996 1.274556 2.3048960000000003 1.274556 2.267686 2.267685 2.267685 0.993128 2.9049640000000005 1.3117670000000001 1.630406 1.630406 1.274556 1.630407 1.348978 1.3117670000000001 3.5422430000000005 1.274556 1.274556 2.3048970000000004 0.637278 2.6235359999999996 2.267685 2.267685 1.9490450000000001 2.5863250000000004 1.5931960000000003 2.2676860000000003 2.267685 1.2745570000000002 2.6235350000000004 2.2676860000000003 1.911836 1.9118350000000004 1.9490450000000001 2.2676860000000003 2.3048960000000003 1.9118350000000004 2.6235359999999996 1.9118350000000004 1.9490450000000001 1.5931960000000003 2.230475 2.6235359999999996 1.630406 2.5863240000000003 2.2676860000000003 1.9118350000000004 2.267685 1.630406 1.5931960000000003 1.630407 1.911836 2.267685 2.2304740000000005 2.5863250000000004 3.773885 1.949046 2.267685 0.993128 2.6235360000000005 2.9049650000000002 1.9490450000000001 2.267685 1.5931960000000003 2.2676860000000003 1.9490450000000001 0.0 2.9421740000000005 2.6235350000000004 1.9118350000000004 1.949046 1.9490450000000001 1.630406 1.630406 2.462116 1.949046 2.2676860000000003 2.267685 1.9490450000000001 1.5931950000000001 1.949046 1.9490450000000001 1.274556 1.949046 1.9118350000000004 0.637278 1.986257 2.267685 1.949046 2.230474 1.986257 1.5931960000000003 1.311768 0.955917 1.949046 1.5931960000000003 0.637278 1.949046 1.348978 1.5931960000000003 1.3117670000000001 3.579454 1.6304060000000002 2.230475 1.6304060000000002 1.5931960000000003 0.674489 1.274556 0.993128 1.5931960000000003 0.955917 2.656548 4.088327 2.462117 0.318639 2.462116 4.531173000000001 3.012398 3.418034 1.274556 1.9862570000000002 2.267685 0.318639 1.630407 1.6676170000000001 1.630408 1.9490450000000001 2.230475 1.911835 2.6235350000000004 0.993128 4.005529 5.238676 1.986257 4.531174 2.9049630000000004 3.0621850000000004 4.286956 2.7435440000000004 1.5931950000000001 0.993128 0.637278 1.274556 2.6235350000000004 0.993128 1.274556 1.6676170000000001 4.324167000000001 9.488421000000002 2.9049630000000004 3.7366740000000003 1.630407 5.2056629999999995 13.738169000000001 1.824838 1.5931960000000003 1.9862560000000002 2.6235350000000004 1.5931960000000003 1.630407 2.1062660000000006 2.6235350000000004 1.630406 1.949046 1.348978 3.3682500000000006 4.564187 3.099396 3.136607 7.0677140000000005 1.3117670000000001 6.980717000000002 2.780756 1.5931960000000003 0.993128 2.267685 1.3117670000000001 1.9118350000000004 1.274556 1.5931950000000001 1.986257 1.9118350000000004 0.993128 3.6166640000000005 2.5863240000000003 6.5174319999999994 6.430434000000001 1.9118340000000003 1.986257 1.9118350000000004 1.2745570000000002 1.5931960000000003 1.2745570000000002 2.3048970000000004 1.2745570000000002 2.230475 3.2608130000000006 1.630406 2.462117 3.2236040000000004 2.2676860000000003 1.630406 2.267685 1.3117670000000001 2.586325 1.9118350000000004 2.623536 0.955918 3.6166640000000005 0.318639 3.418035 1.9490460000000003 1.9118350000000004 1.949046 1.986257 2.267685 0.955917 3.418035 2.9421740000000005 2.267685 0.637278 2.9421749999999998 1.274556 0.955917 1.7048280000000002 3.0621850000000004 2.5863230000000006 2.2304740000000005 1.6304060000000002 2.267685 0.993128 1.311768 1.9862560000000002 2.2304740000000005 1.348978 0.637278 1.6676170000000001 2.387695 2.9421740000000005 1.9118340000000003 1.6676170000000001 1.9118350000000004 2.623536 0.637278 1.348978 2.387695 2.9421740000000005 1.5931960000000003 0.993128 2.387695 2.6235350000000004 1.9118350000000004 1.6676170000000001 1.630407 1.3117670000000001 1.9118350000000004 0.955917 2.3048960000000003 0.993128 1.911835 1.6304070000000002 1.5931960000000003 0.955917 2.267685 1.6676170000000001 1.9490450000000001 1.630406 1.630406 1.9490450000000001 2.6235359999999996 1.630406 1.2745570000000002 1.9862570000000002 1.9118350000000004 1.311768 5.880153 6.074585000000001 1.949046 0.993128 1.274556 1.9490460000000003 0.993128 0.0 3.9353030000000007 1.9490460000000003 2.3048960000000003 2.9421740000000005 0.955917 1.348978 0.993128 2.462116 2.267685 2.6235350000000004 1.274556 1.5931960000000003 1.9118350000000004 1.9862560000000002 1.949046 1.274556 1.949046 1.6676170000000001 2.267685 2.267685 2.9793850000000006 0.993128 6.836072 6.749073 1.3117670000000001 2.7807560000000002 3.616664 1.9490460000000003 1.274556 1.5931950000000001 2.586325 2.586325 1.9118350000000004 5.561514 6.749075000000001 1.9118350000000004 1.3117670000000001 3.6994630000000006 3.099395 1.9118350000000004 1.7876280000000002 1.630406 0.674489 1.9490450000000001 0.637278 1.949046 1.7876280000000002 0.955918 1.6676170000000001 1.5931950000000001 1.3117670000000001 0.955917 1.630407 1.274556 1.9490450000000001 1.630407 1.3117670000000001 1.3117670000000001 0.993128 1.986257 1.348978 0.955917 1.348978 1.2745570000000002 1.9862570000000002 1.2745570000000002 0.83171 2.9421740000000005 1.348978 2.2676860000000003 1.630406 1.630406 1.630407 0.955917 0.993128 0.955917 1.3117670000000001 1.2745570000000002 1.348978 1.3117670000000001 1.3117670000000001 1.5931960000000003 0.993128 1.274556 0.993128 1.2745570000000002 1.348978 2.6235350000000004 1.348978 1.274556 1.667618 0.955917 1.630406 0.993128 2.586325 2.267685 2.2304740000000005 1.949046 3.2236030000000007 2.7807560000000002 1.9490450000000001 3.2938280000000004 7.067712000000002 2.267685 1.911835 2.2676840000000005 1.6304070000000002 8.292486000000002 2.462116 1.274556 1.9118350000000004 2.267685 1.274556 2.3048960000000003 2.267685 1.9490460000000003 2.2676860000000003 1.9490460000000003 1.630406 3.0621850000000004 1.949046 1.9118350000000004 2.267685 2.5863240000000003 1.9118350000000004 1.630406 1.949046 2.267685 1.5931960000000003 1.630407 1.3117670000000001 2.69376 3.931106 3.0993960000000005 0.993128 2.4249060000000005 3.455246 13.655369000000002 1.824838 2.2676860000000003 1.274556 2.586325 1.630406 2.5863240000000003 0.955917 1.949046 2.586325 2.267685 1.4689880000000002 0.955917 2.4249050000000003 4.531174 2.267685 1.949046 0.47586 3.2980240000000007 1.9490460000000003 2.904964 1.9490460000000003 1.9490450000000001 2.9421740000000005 2.9049650000000002 2.267685 2.743545 2.267685 1.911836 1.6676170000000001 2.3048960000000003 0.0 2.942175 1.630406 1.2745570000000002 2.9049640000000005 2.5863240000000003 0.955917 2.942176 2.267685 0.0 3.2608140000000003 2.267685 1.9490460000000003 1.3117670000000001 1.3117670000000001 2.6235350000000004 1.3117670000000001 0.993128 1.274556 2.267685 3.5794520000000007 0.637278 1.6304070000000002 1.630406 1.2745570000000002 1.630406 2.5863250000000004 1.9490460000000003 0.637278 0.993128 1.986257 0.993128 2.2676860000000003 1.9490460000000003 1.630407 0.637278 2.5863250000000004 2.267685 1.630407 0.993128 2.5863250000000004 2.2304740000000005 1.3117670000000001 1.986257 1.911836 1.9118350000000004 1.9490450000000001 1.6304070000000002 2.5863250000000004 1.630406 2.267685 0.955917 2.942175 2.267685 1.3117670000000001 2.5863250000000004 1.9490450000000001 1.9490460000000003 2.267685 1.630406 2.267685 1.3117670000000001 1.274556 2.6607460000000005 2.267685 0.955917 1.274556 2.6235350000000004 1.6304070000000002 1.630407 1.2745570000000002 1.949046 1.5931960000000003 1.5931960000000003 1.949046 2.267685 2.267685 1.630407 1.630406 1.9490450000000001 1.593197 2.5863250000000004 1.3117670000000001 1.949047 3.260815 1.630406 2.2676860000000003 2.2676860000000003 2.5863250000000004 1.5931960000000003 2.267685 1.274556 1.5931960000000003 2.3048960000000003 0.637278 3.616664 2.267685 1.3117670000000001 0.955917 1.2745570000000002 2.267685 2.267685 0.955917 2.267685 1.9490450000000001 0.955917 2.3048960000000003 2.6235350000000004 1.311768 2.267685 2.3048960000000003 2.6235350000000004 1.9490460000000003 1.9490460000000003 1.9118350000000004 2.267685 1.6304070000000002 1.3117670000000001 2.267685 2.267685 2.3048960000000003 1.9490450000000001 1.9490460000000003 2.5863250000000004 0.955917 1.949046 1.311768 1.5931960000000003 1.949046 2.9049650000000002 1.630406 2.3048960000000003 1.9490450000000001 1.9490460000000003 2.6607460000000005 1.9490450000000001 2.3421070000000004 1.311768 1.6676170000000001 1.9862560000000002 1.3117670000000001 2.6235360000000005 1.5931960000000003 1.5931960000000003 2.9049640000000005 1.3117670000000001 2.230475 2.3048960000000003 1.5931950000000001 3.298025 1.9118350000000004 1.9490460000000003 1.3117670000000001 2.2676860000000003 1.9490460000000003 1.9490450000000001 1.6304070000000002 1.5931960000000003 2.230475 3.298025 1.9118350000000004 3.260815 2.586326 1.9490460000000003 2.267685 1.630406 1.9490460000000003 2.2676860000000003 1.630406 1.5931960000000003 2.9421749999999998 1.9490450000000001 2.3048960000000003 1.949046 2.942175 0.993128 1.2745570000000002 1.9490460000000003 1.274556 2.267685 2.230475 2.267685 2.267685 1.9490460000000003 1.3117670000000001 2.267685 2.9049650000000002 1.274556 2.9049640000000005 2.9049640000000005 1.5931960000000003 1.9490460000000003 2.2676860000000003 2.9421749999999998 2.586325 1.3117670000000001 2.9421749999999998 2.267685 2.6235350000000004 2.586326 2.9421749999999998 1.5931950000000001 2.5863250000000004 1.9490450000000001 0.955917 0.993128 1.9490460000000003 1.9490460000000003 1.9118350000000004 2.267685 1.6304070000000002 2.3048960000000003 1.949046 1.949046 2.267685 2.2676860000000003 1.2745570000000002 1.3117670000000001 0.955917 1.3117670000000001 3.2608140000000003 1.3117670000000001 3.3436130000000004 1.9862560000000002 0.955917 1.667618 2.2676860000000003 1.4689880000000002 0.955917 1.348978 1.630406 1.3117670000000001 3.9683160000000006 9.327002000000002 2.9421740000000005 2.230475 2.623536 1.5931960000000003 1.6676170000000001 4.887024 14.731297 2.143477 2.230474 1.3117670000000001 2.2304740000000005 1.348978 1.2745570000000002 1.348978 1.2745570000000002 0.637278 1.2745570000000002 1.311768 2.5863240000000003 1.348978 0.637278 1.986257 3.68689 17.359033000000004 6.0745840000000015 4.092524000000001 2.9421740000000005 1.9118350000000004 4.605596 4.092523 2.267685 1.667618 3.579454 2.267685 1.949046 1.949046 2.2676860000000003 1.2745570000000002 0.955917 1.6676170000000001 4.286956 10.48155 2.9421740000000005 3.8566840000000004 2.3048960000000003 3.6124669999999997 7.0677140000000005 2.230474 1.986257 2.5491140000000003 3.9683170000000008 3.455245 2.267685 0.955917 2.9421749999999998 2.5863250000000004 1.630406 2.5863250000000004 1.5931960000000003 1.5931960000000003 0.993128 1.3117670000000001 1.6304070000000002 2.462116 1.630406 1.9490450000000001 2.5863240000000003 1.9490450000000001 2.267684 2.9049640000000005 0.955917 1.3117670000000001 5.2056640000000005 7.386353 1.9490450000000001 1.9490450000000001 2.2304740000000005 1.3117670000000001 2.267685 2.6235350000000004 1.9118350000000004 0.993128 1.949047 2.304897 1.274556 1.348978 1.2745570000000002 1.9862570000000002 0.637278 1.6676170000000001 1.949046 2.106267 1.6304070000000002 2.462116 3.2236030000000007 1.9862560000000002 1.9490470000000002 0.993128 2.3048960000000003 0.993128 1.986257 2.6235350000000004 0.637278 1.7876280000000002 0.955917 2.304895 2.267685 2.5863240000000003 1.5931950000000001 1.630406 1.5931960000000003 0.993128 2.6235350000000004 0.993128 2.5863250000000004 1.6304060000000002 1.274556 1.9862570000000002 2.706334 1.630407 0.955917 1.9862570000000002 2.6235350000000004 1.6676170000000001 1.630406 1.630406 1.2745570000000002 1.9490460000000003 1.986257 1.630407 1.9490460000000003 1.9490460000000003 0.955917 1.6676170000000001 1.6304070000000002 1.3117670000000001 0.637278 1.3117670000000001 1.9490450000000001 1.630406 1.3117670000000001 1.9490450000000001 0.0 2.3048960000000003 0.993129 2.5863240000000003 2.267685 0.955917 1.630407 0.955917 1.9490460000000003 2.267685 2.6235350000000004 1.9490450000000001 2.6235350000000004 1.6676170000000001 4.005528000000001 8.573913000000001 2.5863240000000003 2.1062659999999997 2.106266 3.418035 3.931107 3.136606 2.9421749999999998 1.630406 1.3117670000000001 0.993128 1.9490460000000003 1.6304070000000002 1.9490460000000003 1.630406 0.955918 0.993128 4.175323000000001 2.3048960000000003 3.0249740000000003 2.6235350000000004 2.5863250000000004 0.955917 2.6235359999999996 2.9793850000000006 1.3117670000000001 2.2676860000000003 1.2745570000000002 2.9421749999999998 2.2676860000000003 1.5931960000000003 0.955917 0.637278 1.9118350000000004 2.3048960000000003 0.955917 3.099396 2.6235350000000004 2.3048960000000003 2.6607460000000005 1.949046 3.0249740000000003 1.3117670000000001 2.267685 1.3117670000000001 1.6676170000000001 2.3048960000000003 1.667618 1.9862560000000002 1.9862570000000002 2.586326 1.949046 12.443168000000002 6.873283000000001 1.6304070000000002 1.5931960000000003 1.630407 1.2745570000000002 1.348978 1.274556 2.6235340000000003 1.9490450000000001 0.993128 2.9049640000000005 3.260816 1.274556 2.5863240000000003 1.949046 1.5931960000000003 2.267685 1.6304070000000002 3.8938950000000006 14.648499000000003 8.255274 4.411163000000001 3.931106 6.1243690000000015 0.955917 1.949046 2.2676860000000003 2.5863250000000004 1.5931960000000003 
7.584980000000002 0.993128 1.667618 1.03034 1.704829 1.70483 1.70483 1.348979 1.348979 1.70483 1.704829 1.704829 1.348979 2.060679 1.704829 1.38619 1.348979 0.993129 1.03034 1.704829 1.704829 1.38619 1.348979 1.70483 1.38619 1.03034 0.993129 2.023468 1.74204 1.348979 1.704829 1.38619 2.06068 0.993129 1.03034 1.03034 1.348979 1.704829 1.704829 1.348979 1.70483 1.386189 1.348979 1.704829 1.348979 1.38619 1.704829 1.03034 1.704829 1.667618 1.03034 2.023468 1.03034 1.348979 1.34898 2.06068 1.348979 2.06068 0.67449 2.023468 1.03034 1.704829 1.7048290000000001 0.993129 1.03034 2.06068 1.704829 1.348979 0.35585 1.704829 2.0234690000000004 2.06068 1.03034 1.348979 1.704829 1.38619 1.348979 1.03034 2.06068 1.70483 1.7048290000000001 1.03034 0.67449 0.993129 1.704829 1.38619 2.023469 1.704829 1.704829 1.70483 2.06068 1.70483 1.7048290000000001 0.67449 0.67449 1.704829 1.03034 1.348979 1.03034 2.3793190000000006 0.993129 2.06068 1.704829 1.38619 1.704829 1.667618 1.348979 1.704829 1.704829 1.38619 1.704829 2.379319 2.41653 1.386189 0.993129 1.704829 1.667618 2.3421070000000004 1.348979 1.03034 1.667618 1.38619 0.993129 1.704829 1.348979 1.704829 1.348979 2.06068 1.38619 1.348979 0.7117 1.704829 1.704829 1.03034 1.03034 1.03034 1.704829 1.704829 1.348979 1.38619 1.348979 1.704829 1.704829 1.03034 2.06068 1.38619 1.348979 1.348979 1.667618 1.38619 1.0303390000000001 1.348979 1.704829 0.993129 0.993129 1.704829 2.023468 0.67449 1.704829 1.38619 1.7048290000000001 1.03034 1.7048290000000001 1.704829 0.67449 1.348979 1.03034 1.38619 0.993129 1.06755 1.03034 1.704829 1.38619 2.06068 1.7048290000000001 1.70483 2.06068 1.667618 2.023468 1.74204 1.38619 1.38619 2.06068 1.704829 1.38619 1.03034 1.704829 1.348979 2.06068 2.023468 1.38619 1.06755 2.06068 1.348979 1.704829 1.03034 1.704829 1.704829 0.7117 1.38619 1.70483 1.704829 0.7117 1.704829 0.674489 1.348979 1.348979 1.70483 1.704829 1.348979 1.348979 1.348979 1.704829 2.023468 1.03034 1.348979 1.348979 1.704829 0.7117 1.15035 0.318639 2.143478 0.35585 3.4924570000000004 2.060679 1.82484 0.0 1.468989 0.0 1.704829 0.7117 1.348979 1.348979 1.704829 0.35585 1.70483 1.348979 0.35585 0.67449 1.704829 0.67449 1.704829 0.35585 1.15035 0.318639 1.348979 0.0 1.15035 0.0 1.38619 0.7117 1.15035 0.318639 1.787628 0.674489 6.273214 5.155876000000001 2.462118 0.0 1.468989 0.35585 0.993129 0.0 1.348979 1.704829 2.023468 0.7117 1.70483 1.348979 1.704829 2.06068 1.03034 0.7117 1.468989 0.318639 4.005528 7.973846000000001 1.667618 3.529668 2.6979570000000006 0.67449 6.860706000000001 3.575256 1.38619 0.35585 0.993129 1.704829 1.704829 1.0303390000000001 1.38619 0.35585 1.8248389999999999 0.318639 2.4621180000000003 0.7117 0.67449 0.637278 2.106267 1.0303390000000001 1.704829 0.7117 1.704829 0.7117 1.348979 0.7117 1.348979 0.35585 1.468989 0.35585 6.947704 4.444176000000001 3.4924570000000004 2.3421070000000004 1.787628 0.318639 0.67449 1.38619 1.704829 1.03034 1.03034 0.993129 1.70483 1.348979 1.15035 0.7117 1.704829 0.637278 1.348979 1.38619 2.06068 0.318639 1.38619 0.7117 1.15035 0.35585 2.8179680000000005 1.06755 2.780757 1.704829 1.03034 0.35585 1.348979 1.38619 1.7048290000000001 1.311768 1.03034 0.674489 1.506199 0.35585 3.4924570000000004 2.0234680000000003 1.348979 0.0 0.993129 0.0 1.06755 0.35585 1.38619 0.637278 2.3793190000000006 1.704829 1.0303390000000001 2.023468 1.03034 0.0 2.8179680000000005 0.7117 6.6290640000000005 5.118665000000001 1.468989 0.35585 1.704829 0.0 1.348979 0.637278 1.468989 0.637278 1.15035 0.318639 1.15035 0.0 0.0 0.674489 0.67449 0.35585 0.35585 0.0 0.35585 0.318639 3.136607 0.993129 0.993129 0.35585 0.35585 0.35585 0.67449 1.348979 1.348979 1.03034 4.444177000000001 2.180689 2.462117 1.0303390000000001 1.704829 0.0 1.348979 0.0 2.06068 1.03034 1.70483 0.35585 0.993129 0.318639 2.06068 0.0 1.468989 0.0 2.8923900000000007 0.7117 0.67449 1.03034 0.67449 0.318639 1.15035 0.318639 1.468989 0.674489 1.15035 0.0 1.704829 0.7117 1.704829 1.06755 1.468989 0.318639 1.82484 0.318639 2.143479 0.35585 1.348979 1.348979 0.993129 1.348979 1.03034 1.348979 1.348979 1.06755 3.211029 2.180688 1.949046 0.67449 1.704829 1.348979 1.348979 2.06068 2.06068 2.023468 0.67449 1.348979 1.787628 0.35585 4.444177000000001 1.03034 2.0234680000000003 0.67449 2.023468 1.4234 1.348979 1.38619 1.704829 1.03034 1.468989 0.318639 0.993129 0.674489 1.468989 0.674489 5.917363999999999 5.118665000000001 0.7117 0.7117 1.03034 2.379319 1.348979 1.704829 1.03034 2.023468 2.023468 1.38619 1.704829 1.704829 4.166946 7.936635 0.7117 4.042739 1.704829 0.993129 5.755943000000001 3.256616 1.667618 0.7117 2.06068 2.0234690000000004 2.023468 1.70483 1.704829 1.38619 2.06068 1.348979 1.70483 1.38619 1.468989 1.0303390000000001 0.7117 0.318639 0.7117 1.704829 1.70483 2.060679 0.7117 1.03034 2.06068 2.06068 2.106267 1.0303390000000001 1.3861890000000001 0.318639 1.348979 1.03034 1.704829 1.03034 1.348979 1.348979 2.06068 1.348979 1.348979 1.348979 1.34898 1.348979 1.348979 0.7117 1.38619 1.348979 1.787628 1.0303390000000001 1.38619 0.318639 1.0303390000000001 0.993128 1.704829 1.03034 1.38619 1.704829 1.74204 1.38619 1.348979 0.0 2.780757 0.35585 3.529668 2.0234680000000003 1.38619 0.35585 1.704829 1.348979 1.704829 2.023468 1.03034 0.993129 1.03034 1.704829 1.348979 1.03034 0.35585 0.318639 0.35585 0.318639 1.03034 1.704829 2.06068 1.704829 0.67449 1.704829 0.993129 1.348979 1.38619 1.348979 2.0234680000000003 1.348979 3.848307 7.142137000000001 0.7117 3.173818 2.3793180000000005 2.143478 3.8483080000000003 3.256616 2.06068 1.704829 1.704829 1.704829 1.704829 1.348979 2.106267 0.0 5.954575 4.1255370000000005 2.462117 1.348979 0.67449 1.667618 1.348979 2.06068 1.704829 1.704829 1.704829 0.993129 1.704829 1.704829 2.0234680000000003 1.348979 6.273214 5.118665000000001 1.348979 0.993129 1.667618 1.03034 2.023468 1.74204 1.348979 1.7048290000000001 1.348979 1.06755 0.993129 0.993128 2.660746 1.348979 1.704829 1.667618 0.7117 1.348979 1.704829 1.348979 1.38619 2.660746 1.348979 1.03034 1.03034 1.704829 2.379318 1.03034 1.03034 1.348979 2.06068 1.704829 1.348979 2.06068 1.704829 1.06755 1.348979 2.379318 1.06755 1.06755 1.704829 2.06068 1.704829 0.674489 2.660746 1.348979 1.03034 2.06068 2.06068 1.704829 1.704829 2.06068 1.704829 1.70483 2.023468 1.704829 1.03034 1.70483 1.704829 1.03034 2.06068 0.993129 0.993129 1.348979 1.03034 1.348979 1.704829 1.348979 1.5062 1.9862570000000002 1.34898 2.06068 1.7048290000000001 1.03034 1.468988 2.660746 1.348979 1.704829 1.348979 1.70483 1.348979 1.348979 1.348979 1.704829 1.7048290000000001 1.70483 1.03034 2.023468 1.03034 1.38619 1.704829 2.379318 1.38619 1.03034 1.348979 0.67449 0.993129 1.70483 0.993129 1.70483 1.348979 2.0234690000000004 0.993129 1.348979 1.704829 1.348979 1.03034 1.70483 1.70483 1.348979 0.993129 1.348979 2.660746 0.993129 1.03034 1.348979 0.67449 1.704829 1.348979 1.704829 1.704829 0.67449 2.06068 1.03034 1.348979 1.38619 1.70483 1.704829 1.704829 0.7117 1.667618 0.7117 0.7117 1.38619 1.38619 1.704829 1.03034 0.35585 1.667618 1.03034 1.03034 1.704829 0.35585 2.06068 2.060679 1.348979 1.03034 2.060679 1.348979 1.348979 1.704829 1.704829 1.348979 1.348979 1.704829 1.348979 1.03034 1.348979 2.06068 1.348979 1.348979 1.348979 1.03034 1.348979 1.348979 2.06068 1.38619 0.993129 1.348979 1.704829 1.704829 0.67449 1.704829 1.704829 1.348979 2.06068 1.348979 2.023468 2.5365390000000003 1.38619 2.06068 1.03034 1.348979 2.023468 1.74204 1.704829 1.348979 1.704829 1.74204 1.06755 1.630407 1.70483 1.704829 1.348979 1.38619 1.03034 2.023469 0.318639 1.7048290000000001 1.348979 1.348979 1.03034 0.67449 1.70483 1.03034 0.67449 2.06068 1.348979 1.150349 0.7117 3.529668 1.348979 2.462118 1.0303390000000001 1.468989 0.674489 1.15035 0.637278 0.993129 0.0 1.468989 0.0 1.468989 0.318639 3.529669 1.667618 2.106268 1.348979 1.704829 0.0 0.67449 0.0 1.468989 0.318639 2.8923889999999997 6.943504000000001 0.318639 1.0303390000000001 0.318639 4.800028 3.2110280000000007 3.575256 1.15035 0.318639 1.348979 0.318639 1.704829 0.7117 1.348979 1.74204 2.780757 0.993129 1.82484 0.0 3.566878 8.805554000000003 0.318639 4.005529 2.6979570000000006 2.817968 5.553138000000001 2.937977 1.03034 0.318639 0.35585 0.637278 2.06068 0.0 1.15035 0.0 4.204157 9.757275000000002 1.704829 4.680019000000001 1.38619 6.273214 13.493946999999999 3.5752550000000003 1.348979 1.38619 1.704829 1.704829 1.704829 0.637278 1.70483 0.35585 1.82484 1.0303390000000001 2.9295999999999998 8.449703000000003 0.637278 4.485585 4.444176000000001 0.35585 6.149006000000001 3.256617 0.993129 0.674489 1.704829 0.0 1.348979 1.03034 1.38619 0.35585 0.993129 0.0 4.204159000000001 1.667618 7.266343 5.118665000000001 1.8248389999999999 0.674489 0.993129 1.348979 1.348979 1.704829 2.06068 1.704829 2.462118 1.630407 2.023469 0.674489 2.023468 1.7048290000000001 1.38619 1.348979 1.38619 1.34898 1.704829 1.70483 2.0234680000000003 2.379319 1.704829 0.955917 0.993129 1.348979 1.468989 0.0 2.06068 0.318639 3.136607 1.667618 1.704829 0.0 2.06068 1.38619 1.03034 0.35585 3.136607 1.986257 2.143478 1.348979 2.06068 0.0 1.348979 0.0 2.143478 0.7117 0.67449 1.0303390000000001 2.462118 0.993129 1.348979 1.03034 1.704829 0.674489 1.06755 0.7117 2.462118 1.348979 1.348979 0.0 2.462118 0.993128 1.348979 0.7117 1.468989 0.318639 1.348979 0.318639 2.06068 0.0 2.143479 0.674489 1.468989 0.674489 0.993129 0.674489 1.38619 1.03034 0.7117 1.03034 2.06068 1.38619 1.468989 0.674489 1.8248389999999999 0.0 6.273214 4.481387000000001 1.704829 0.0 0.67449 1.704829 0.7117 1.704828 3.016597000000001 1.348979 1.348979 1.70483 0.67449 0.35585 1.742039 0.318639 0.993129 1.348979 1.03034 1.704829 1.348979 1.38619 1.03034 0.67449 1.704829 1.03034 0.993129 1.704829 2.06068 0.35585 7.584982 5.118666000000001 1.986258 0.318639 1.70483 1.704829 1.03034 0.67449 1.34898 1.34898 0.993129 6.273214 5.155876000000001 0.993129 1.03034 4.6428069999999995 2.2179 1.348979 0.318639 1.38619 0.0 1.03034 0.0 2.06068 0.674489 0.993129 0.318639 0.67449 0.674489 0.67449 0.637278 1.38619 1.03034 0.318639 0.67449 1.03034 0.7117 1.348979 0.7117 1.15035 0.0 1.787628 0.674489 1.348979 0.955917 1.667618 1.06755 2.023468 1.03034 1.03034 0.674489 1.03034 0.0 0.67449 0.318639 1.468989 0.35585 1.06755 0.674489 1.468989 0.7117 1.704829 0.7117 0.993129 0.0 1.704829 0.35585 1.468989 0.318639 1.03034 1.03034 1.704829 0.993129 1.348979 1.667618 1.704829 1.9862579999999999 2.8923890000000005 1.03034 2.8551780000000004 7.936635 1.348979 2.462118 2.3048960000000003 1.667618 7.179345000000001 3.256616 1.03034 1.704829 0.993129 1.38619 2.06068 1.348979 1.704829 1.667618 1.348979 1.38619 3.6496779999999998 1.38619 1.348979 1.03034 2.0234680000000003 1.348979 1.03034 0.993129 1.348979 1.348979 1.468989 0.318639 2.25511 7.142133000000001 0.637278 1.0303390000000001 0.318639 4.485585 12.306384999999995 2.937977 1.311768 1.03034 1.7048290000000001 0.67449 2.3793190000000006 1.03034 1.704829 1.34898 1.704829 0.35585 0.0 0.637278 4.324168000000001 2.0234680000000003 0.993129 1.274556 2.6607470000000006 1.348979 1.348979 1.704829 1.38619 1.348979 2.023468 1.704829 3.9683170000000003 1.667618 2.106268 1.0303390000000001 1.348979 1.0303390000000001 2.660746 0.67449 1.348979 0.993129 1.311768 1.03034 2.023468 1.7048290000000001 1.3861890000000001 1.630407 1.70483 1.704829 1.03034 0.35585 2.06068 0.35585 1.06755 0.67449 1.70483 2.6607470000000006 1.38619 1.38619 1.38619 1.348979 1.03034 1.704829 1.348979 1.704829 0.7117 1.704829 0.35585 2.023468 1.348979 1.7048290000000001 0.35585 1.704829 1.348979 1.386189 0.7117 1.704829 1.667618 1.03034 1.38619 1.704829 1.704829 1.03034 1.03034 1.704829 1.03034 1.348979 0.7117 1.34898 1.704829 1.38619 1.348979 1.38619 1.704829 1.704829 0.67449 1.348979 1.38619 1.03034 1.70483 1.348979 1.03034 1.03034 1.70483 1.348979 1.348979 1.348979 2.06068 1.704829 1.704829 1.70483 1.348979 1.348979 1.7048290000000001 1.38619 1.03034 1.704829 2.023468 1.38619 1.704829 2.379319 1.38619 1.348979 1.348979 1.704829 1.348979 1.348979 1.348979 1.348979 1.704829 0.35585 2.06068 0.993129 0.67449 0.67449 1.348979 1.704829 0.993129 1.03034 1.704829 1.03034 0.35585 2.06068 2.06068 1.704829 1.348979 2.06068 1.704829 1.704829 1.704829 0.993129 1.348979 1.704829 1.03034 1.704829 1.348979 2.06068 0.67449 1.348979 2.023468 0.67449 1.704829 1.704829 1.704829 1.348979 2.023468 1.03034 1.704829 1.03034 1.704829 2.06068 0.67449 2.06068 1.348979 0.67449 1.03034 1.03034 2.06068 1.348979 0.993129 1.704829 0.67449 1.348979 1.70483 0.67449 2.06068 1.348979 1.348979 0.35585 1.348979 1.704829 1.03034 1.38619 1.348979 0.993129 1.70483 0.993129 1.667618 1.667618 1.348979 1.704829 1.03034 1.704829 1.704829 0.67449 1.348979 2.06068 1.38619 2.06068 1.348979 2.023468 0.7117 1.704829 1.704829 1.38619 0.67449 1.348979 1.348979 1.704829 1.348979 1.38619 2.06068 2.023468 1.03034 0.993129 1.348979 1.348979 1.348979 1.348979 2.06068 1.386189 1.03034 2.06068 2.06068 1.704829 2.023468 2.06068 1.03034 1.348979 1.74204 1.15035 0.0 1.704829 1.704829 1.348979 1.348979 1.704829 1.348979 0.993129 2.06068 1.704829 1.704829 1.468989 0.318639 0.67449 0.674489 1.82484 0.318639 2.462118 1.0303390000000001 1.15035 0.674489 1.667618 0.0 1.03034 0.0 1.03034 0.318639 3.848307 9.521435 2.0234680000000003 1.468989 0.637278 1.468989 0.35585 5.917364 13.738164999999997 3.256616 2.143479 1.348978 2.143478 0.35585 1.468989 0.35585 1.468989 0.0 1.468989 0.674489 2.499329 1.06755 1.150349 0.0 3.2110279999999998 13.854000000000003 4.444177000000001 4.324168000000001 2.0234680000000003 2.143478 3.811095 4.286956000000001 1.348979 0.0 1.6676190000000002 1.704829 1.7048290000000001 1.03034 1.704829 1.348979 1.03034 0.674489 3.848307 9.720065000000002 1.348979 4.444177000000001 1.03034 4.961445 4.800026000000001 2.462118 0.35585 2.462118 3.1738169999999997 3.931106 1.704829 0.7117 1.70483 1.704829 1.03034 1.704829 1.704829 1.348979 1.15035 0.674489 2.0234680000000003 0.318639 1.03034 1.03034 2.0234690000000004 1.03034 1.03034 1.704829 0.67449 0.318639 6.273214 5.793155000000001 1.03034 1.03034 1.787628 0.67449 2.462117 0.993129 1.348979 0.35585 1.348979 1.0303390000000001 0.67449 0.7117 1.468989 0.637278 1.15035 0.993128 2.855178 1.86205 2.342108 0.318639 3.455246 0.993129 2.023468 0.0 1.704829 0.7117 0.993129 2.06068 1.38619 1.0303390000000001 1.15035 0.674489 3.211029 2.342107 1.5062 0.318639 0.993129 0.35585 1.704829 0.35585 1.704829 0.318639 1.468989 1.3489780000000002 2.817968 1.38619 1.15035 1.0303390000000001 1.70483 1.38619 0.35585 1.03034 1.704829 1.704829 1.348979 1.0303390000000001 1.704829 2.0234680000000003 0.67449 1.03034 1.704829 1.03034 1.15035 0.674489 1.03034 1.38619 1.38619 0.67449 0.993128 2.023468 2.180689 1.348979 1.34898 1.03034 1.704829 1.38619 1.348979 1.704829 1.704829 1.03034 2.06068 1.38619 3.529667 9.124194000000001 1.348979 1.38619 0.318639 3.6496779999999998 5.197288 3.931106 1.70483 1.38619 0.7117 0.7117 1.348979 1.348979 1.704829 0.67449 1.468989 0.7117 5.118666999999999 1.38619 2.780757 1.348979 1.667618 1.03034 2.06068 2.06068 1.38619 1.704829 1.704829 1.348979 0.993129 1.704829 1.03034 0.0 1.704829 1.704829 1.348979 0.993128 1.34898 1.70483 2.06068 0.674489 2.143478 1.3861890000000001 0.993129 1.03034 1.38619 1.7048290000000001 1.386189 0.67449 1.348979 1.667618 2.743545 11.474679 5.954575 1.704829 0.993129 1.348979 1.348979 0.0 1.15035 0.993128 1.74204 0.35585 0.993129 2.023469 1.38619 0.67449 1.70483 1.704829 2.143478 0.318639 3.4552460000000003 15.666262000000005 6.980716 3.6124670000000005 2.499328 6.674651000000002 1.38619 1.7048290000000001 0.993129 1.348979 1.348979 
15.165767000000002 8.255274 7.299355 7.936634000000001 8.573913000000001 8.611124 8.611124 8.255272999999999 8.573913000000001 8.611124 7.9366330000000005 7.9366330000000005 7.9366330000000005 8.611123000000001 8.255273 8.292484000000002 8.255272999999999 8.255272999999999 8.255274 8.255273 8.255273 7.936634000000001 7.936634000000001 8.611124 7.299355 7.936634000000001 7.6179950000000005 7.617994 7.973844000000001 7.299355 8.255273 7.936634000000001 8.292484000000002 8.573913000000001 7.936634000000001 8.255274 8.255272999999999 7.299354000000001 8.255273 8.573913000000001 8.611124 7.973845000000001 8.892553 7.9366330000000005 6.943505999999999 8.292484000000002 7.9366330000000005 7.899424000000001 8.573913000000001 8.573912 8.255274 7.262144 7.936634000000001 8.573913000000001 8.929765 8.292484000000002 8.255273 8.611124 8.255274 7.617994 8.255274 7.9366330000000005 7.299355 8.255272999999999 8.255274 8.292484000000002 7.9366330000000005 8.255272999999999 7.936634000000001 8.255273 9.567043000000002 7.973844000000001 8.573914000000002 8.255274 7.9366330000000005 7.936634000000001 7.9366330000000005 8.255274 8.929764000000002 8.292484000000002 7.299355 7.262144999999999 8.573914000000002 8.255272999999999 7.9366330000000005 7.936634000000001 7.655206000000001 7.9366330000000005 7.9366330000000005 8.929764000000002 8.292485000000001 8.292484000000002 7.655206 8.255274 8.255274 7.9366330000000005 7.580784 7.9366330000000005 7.936634000000001 8.611123000000001 8.573913000000001 8.611124 7.9366330000000005 7.617994 7.9366330000000005 7.6179950000000005 8.255273 8.255273 7.9366330000000005 7.617994 7.9366330000000005 6.662076000000001 8.648334 6.980716 8.255272999999999 8.255273 8.255274 7.299354000000001 8.255272999999999 8.255274 7.936634 8.292484000000002 8.255272999999999 8.255273 8.255273 7.9366330000000005 8.255272999999999 8.292484000000002 7.6552050000000005 8.255272999999999 7.580784 8.573913000000001 7.9366330000000005 7.936634000000001 7.899424000000001 7.936634000000001 8.255273 7.9366330000000005 8.255272999999999 7.617994 8.255273 7.9366330000000005 8.255273 7.936634000000001 8.292484000000002 7.580784 8.573913000000001 8.573914000000002 8.255272000000001 7.617994 6.943506 8.255272999999999 8.573913000000001 8.892553 8.573913000000001 7.9366330000000005 7.617994 7.580784 7.299354000000001 8.292484000000002 6.980716 7.936634000000001 7.299355 8.255273 8.573914000000002 8.573913000000001 7.936634000000001 7.617994 8.255273000000003 8.292484000000002 8.255274 7.9366330000000005 8.611124 8.292484000000002 6.624866 8.611124 8.611124 6.624865000000001 7.617994 7.973844000000001 7.617994 7.617994 8.292484000000002 7.617994 7.936634000000001 8.255274 7.9366330000000005 7.899423 8.611124 7.262144 7.299355 7.580784 7.973844000000001 7.9366330000000005 7.580783 7.617994 7.299354000000001 7.9366330000000005 7.617994 7.617994 8.929764000000002 7.9366330000000005 7.580784 7.9366330000000005 7.299355 8.573913000000001 8.218063 8.929764000000002 7.9366330000000005 7.9366330000000005 8.892553 7.9366330000000005 8.573913000000001 6.980715000000001 7.617994 8.892553 8.255272999999999 7.299354000000001 7.899424000000001 9.086985 8.218064000000002 10.754602 7.5435740000000004 11.747731 7.224933 10.435964 7.5435740000000004 9.724263 7.5435740000000004 7.9366330000000005 7.580784 8.573913000000001 7.936634000000001 8.255273 7.936634000000001 8.611124 7.899423 8.255274 8.255274 8.255273 8.255274 7.8994230000000005 7.617994 9.049774000000001 8.218064000000002 8.929763 8.573914000000002 9.405624000000001 7.899424000000001 7.936634000000001 8.255274 9.049774000000001 7.862214000000001 10.398752 7.262145 5.991785000000001 11.706320000000002 11.073242 7.5435740000000004 9.724263 7.5435740000000004 9.248403 8.255274 8.573913000000001 8.573913000000001 7.936634000000001 8.611124 8.929764000000002 8.255272999999999 7.617994 8.292484000000002 8.255274 7.580784 9.724263 8.536704 8.168275000000001 11.387683 7.862213000000001 11.784942000000001 8.180852000000002 8.486916 11.342095 10.162912 8.929764000000002 8.218064000000002 8.892553 8.255273 8.573913000000001 7.936635000000001 7.936634000000001 7.899424000000001 9.086983 8.218064000000002 10.717392 7.5435740000000004 7.775216 7.738005000000001 10.361542000000002 6.587655 7.9366330000000005 7.262144 7.9366330000000005 8.255274 8.255272999999999 7.580784 8.255272999999999 7.936634000000001 9.724263 8.218064000000002 5.991785000000001 10.357342000000001 11.747731 8.499492 10.398752 8.180854 8.255274 7.617994 7.9366330000000005 7.936634000000001 8.218064000000002 9.248403 8.929764000000002 8.573913000000001 9.405624000000001 7.5435740000000004 7.6552050000000005 7.738005000000001 7.299355 7.617994 8.292484000000002 7.617996 7.617994 8.255274 9.405624000000001 7.5435740000000004 11.429092 7.5435740000000004 11.391881000000001 7.224934 7.936634000000001 7.936634000000001 8.255272999999999 7.973844000000001 7.6179950000000005 8.573913000000001 8.255274 8.573914000000002 10.117324 7.5435740000000004 12.223591 7.224933000000001 8.929763 7.899424000000001 9.248403 7.5435740000000004 7.262144 8.218064000000002 7.936634000000001 8.499493000000001 8.929763000000001 7.617994 7.6179950000000005 7.6179950000000005 8.255274 7.899424000000001 11.429092 7.5435740000000004 5.3172950000000005 11.387681000000002 9.724263 7.899424000000001 8.255273 7.936634000000001 8.929763 8.536703 9.724263 9.567043 9.442835 8.892554 9.761474 7.899424000000001 8.929764 8.892554 8.929764 8.573914000000002 8.573914 8.573914000000002 8.929764 8.536704 11.036032 8.536704 8.892554 8.255275000000001 8.929764 8.573914000000002 8.573914000000002 7.936633000000001 8.573913000000001 8.573914000000002 12.699451 8.338073000000001 11.073241000000001 7.5435740000000004 8.611123000000001 8.375284 7.936635000000001 8.611124 8.292484000000002 7.580784 8.929764000000002 8.573914000000002 8.892553 8.536704 8.611124 8.255274 9.086984000000001 6.980716 9.124195 7.899424000000001 8.218064000000002 7.936634000000001 8.929764 7.262145 9.405624000000001 7.862214000000001 9.724263 7.262145 9.405624000000001 7.5435740000000004 8.255273 7.6179950000000005 8.255273 7.617994 9.724263 8.180854 10.080114000000002 8.180854 10.754603000000001 7.5435740000000004 8.255273 8.255273 8.255272999999999 8.573913000000001 7.936634000000001 7.9366330000000005 8.573913000000001 7.617994 11.623524 9.049773 7.936634 8.255274 8.255273 8.573913000000001 8.892553 8.929764000000002 8.292484000000002 7.617994 8.573914000000002 8.573913000000001 10.042902000000002 7.224934 12.699451 6.906294 8.255273 8.255274 7.617994 7.617994 8.255273 8.611124 8.255273 8.255274 9.724263 7.862214000000001 9.248403 7.8994230000000005 9.368413 7.862214000000001 6.273214000000001 11.387681000000002 7.580784 7.936634000000001 8.255274 7.6552050000000005 8.218063 7.9366330000000005 7.899424000000001 6.980715000000001 7.9738440000000015 7.973844000000001 8.255273 7.936634000000001 7.692415000000001 12.182182000000001 7.5435740000000004 11.904953 7.862213000000001 8.449705000000002 11.51189 9.844272 8.573913000000001 7.899424000000001 8.929764000000002 8.929764 7.617994 8.929764000000002 7.9366330000000005 7.617994 8.292484000000002 8.255272999999999 8.292484000000002 8.292484000000002 9.405624 7.5435740000000004 6.662076 8.693923999999999 7.899424000000001 8.573913000000001 8.292484000000002 7.299355 7.899424000000001 8.255274 7.973845000000001 8.611124 10.361541 7.224935 7.6552050000000005 8.375284 8.573913000000001 7.262144999999999 7.9366330000000005 8.573914000000002 8.573913000000001 8.573913000000001 7.973844000000001 7.580783 8.573913000000001 8.892553 8.929764000000002 8.929763 8.255273 7.617994 7.973844000000001 9.248403 10.398752 8.536704 7.175146000000001 8.375284 7.973844999999999 7.5807850000000006 8.255273 7.936634000000001 7.617994 7.617993000000001 7.973844000000001 7.299355 8.255273 7.580784 11.391881000000001 7.5435740000000004 11.784942000000001 7.862213000000001 8.292484000000002 7.936634000000001 7.9366330000000005 8.573913000000001 8.255273 7.936634000000001 7.936634000000001 8.573913000000001 8.573914000000002 8.255273 8.573913000000001 7.936634000000001 6.624866 8.693923999999999 7.017926 8.693923999999999 7.899424000000001 8.573913000000001 8.292484000000002 7.9366330000000005 8.255274 7.9366330000000005 8.573913000000001 8.573913000000001 7.617994 8.573913000000001 8.573912 7.2993559999999995 7.055137000000001 12.062172 7.5435740000000004 11.429092 7.936633000000001 11.230462000000001 10.278742 10.481551000000001 8.611124 8.573913000000001 8.255273 7.617994 8.573913000000001 8.255273 10.361541 7.862214000000001 5.635934000000001 10.994621 11.073241000000001 7.862214000000001 8.573914000000002 8.892553 7.936634000000001 8.611124 8.255273 8.573913000000001 7.617994 8.255272999999999 7.9366330000000005 8.573913000000001 9.248402 8.255273 5.3172950000000005 10.713192000000001 8.892553 8.255272999999999 8.892553 7.936634000000001 7.936634000000001 8.292484000000002 8.255272999999999 7.299356 8.573913000000001 8.292484000000002 8.573913000000001 8.255274 7.617993000000001 8.573914000000002 8.255273 7.936634000000001 7.580784 8.573913000000001 8.255273 8.573913000000001 7.973846 7.617994 8.255272999999999 8.255274 7.6179950000000005 7.9366330000000005 7.973844000000001 8.292484000000002 8.255274 7.936633000000001 8.611124 7.9366330000000005 8.573913000000001 8.292484000000002 7.9366330000000005 7.936634000000001 7.617994 7.6552050000000005 7.262144 7.580784 8.573913000000001 8.611124 8.255273 9.285613999999999 7.9366330000000005 7.9366330000000005 7.580784 8.292484000000002 8.292484000000002 8.255273 8.573913000000001 7.973845000000001 8.573913000000001 9.248404 7.617994 7.9366330000000005 8.573914 8.292484000000002 8.255273 8.573914000000002 8.611124 7.936634000000001 8.892553 8.573913000000001 8.255274 8.255273 8.255273 8.573913000000001 8.093856 7.617994000000001 8.929764000000002 8.611124 7.336565 7.617994 9.405624000000001 7.617993000000001 8.255272999999999 8.573913000000001 7.936634000000001 8.611124 7.9366330000000005 8.573913000000001 7.936634000000001 8.255273 7.6552050000000005 8.611124 8.573914000000002 6.980715000000001 8.255274 7.936634000000001 8.255273 7.973844000000001 7.617994 7.580784 7.9366330000000005 7.936634000000001 8.573913000000001 8.611124 8.573913000000001 8.929764000000002 8.573913000000001 9.248403 8.255272999999999 8.573913000000001 8.255273 7.9366330000000005 8.255274 8.611124 8.611124 8.573913000000001 8.892553 7.936635 7.617994 8.573913000000001 8.292484000000002 8.255272999999999 8.573914000000002 7.617993000000001 7.9366330000000005 8.255273 8.255273 7.936634000000001 8.292484000000002 8.255274 8.573913000000001 8.255274 8.611125000000001 7.9366330000000005 8.255273 8.292485 7.299354000000001 7.617994 6.943505 7.617994 8.292484000000002 8.255273 7.617995 7.899424000000001 7.617994000000001 8.255274 8.255274 7.9366330000000005 8.573914000000002 8.292484000000002 8.292483 8.573913000000001 8.611124 8.292483 8.573913000000001 8.255273 7.9366330000000005 7.580784 8.573913000000001 7.936634000000001 8.573913000000001 8.892553 7.936634000000001 8.573913000000001 8.292484000000002 8.892553 8.255273 8.573913000000001 7.936634000000001 8.892553 8.892553 8.292484000000002 7.973844000000001 8.255272999999999 7.617994 8.255273 8.255273 8.255274 8.255273 8.255273 8.892553 8.929764000000002 8.573913000000001 7.617994 9.086983 8.292484000000002 8.929764000000002 7.617995 8.255273 7.6552050000000005 7.617994 7.9366330000000005 8.573913000000001 7.617994 8.292484000000002 7.899425 8.255272999999999 8.611124 8.255273 8.892553 7.936634000000001 8.255274 7.017926 8.375284 7.973845000000001 8.255272999999999 7.9366330000000005 7.936634000000001 8.573914000000002 8.929764000000002 7.936634000000001 8.255274 8.966974 8.255273 9.724264000000002 7.617994 11.784942000000001 7.862213 11.073242 7.5435740000000004 9.724263 7.936635000000001 9.405624000000001 7.5807850000000006 8.929763 8.218064000000002 9.724263 7.224934 9.724263 8.218064000000002 11.466304 8.855342 10.080113 8.536704 8.255273 8.255274 8.929764 8.255274 9.724263 8.536704 8.329693 13.568371 8.693923999999999 8.648334 8.056644000000002 13.055302000000001 8.648334 10.481551000000001 9.405624000000001 7.262145 8.255272999999999 8.536703 8.611123 8.255274 6.980716 7.973844000000001 11.391881000000001 8.180854 10.080114000000002 7.899424000000001 7.729627000000002 15.074570000000001 8.218064000000002 12.736663 8.499492 11.904952000000002 10.671804 8.851143 8.611124 8.573913000000001 8.573914 8.499493000000001 8.292484000000002 8.255274 9.405624000000001 7.5435740000000004 9.004183 11.346274000000001 7.5435740000000004 12.935293000000001 7.5435740000000004 5.673145000000001 16.787775 9.844272000000002 8.573913000000001 7.617994 7.9366330000000005 8.255273 8.611123 9.012563 8.292484000000002 8.255274 10.080114000000002 7.862213 8.366905000000001 15.074570000000001 8.056645000000001 6.347634000000001 10.713192000000001 7.017926 12.542230000000002 9.488423000000001 8.929763 8.218063 8.255273 8.255274 8.255273 7.936634000000001 8.255274 8.255274 9.248403 7.899424000000001 12.459433 8.499493000000001 4.961445 11.66911 10.435963000000001 7.862214000000001 8.573913000000001 8.573913000000001 8.255273 8.573913000000001 8.292485 8.573913000000001 11.073242 8.499492 7.017926 8.693923999999999 7.299354000000001 7.299355 8.292484000000002 7.9366330000000005 7.936634000000001 8.929764000000002 8.255273 8.929764000000002 8.255273 7.6552050000000005 9.004184 7.700794 8.255272999999999 8.892553 9.724263 7.224934 8.611124 8.536704 12.223591 8.180852999999999 8.611123000000001 8.218064000000002 8.292484000000002 8.255274 8.611124 8.255274 12.223591 8.818132000000002 10.754602 8.536704 8.611124 8.573914 8.929764 7.580784 10.754602 7.5435740000000004 8.929764 7.899424000000001 11.549102000000001 7.224934 8.929764000000002 7.617994 8.255273 7.299355 7.936634000000001 7.580784 11.549102000000001 6.906294 8.611123 7.899424000000001 11.549102000000001 8.180852999999999 8.611123 7.580784 9.405623 8.218064000000002 8.255273 9.248404 7.6552050000000005 8.255274 10.398753000000001 7.862214000000001 9.761474 8.180854 9.248403 8.573914000000002 7.617994 7.936634000000001 7.617994 7.936634000000001 8.292484000000002 7.936634000000001 9.724263 6.943505 10.435963000000001 7.5435740000000004 5.635935000000001 10.357342 8.255273 8.255274 8.573914000000002 7.9366330000000005 8.255274 8.573913000000001 7.973845000000001 8.255272999999999 7.9366330000000005 8.292484000000002 8.573914 7.899424000000001 8.685545 8.375284 8.255272999999999 8.536703 8.573914000000002 8.255273 8.255273 7.936634000000001 7.936634000000001 8.255274 8.255273 8.255274 8.573913000000001 8.611123000000001 8.292484000000002 7.262144999999999 5.280084 11.743531 7.299354 8.375284 8.611124 7.9366330000000005 8.255274 8.218064000000002 8.929764000000002 8.929764000000002 8.892553 5.280085000000001 10.750403 8.573913000000001 8.255274 12.066371000000002 7.738004000000001 8.255273 8.056645 7.617994 7.899424000000001 7.936634000000001 8.573914000000002 8.966974 8.412495 8.929764 8.573914000000002 8.611124 8.536704 8.929764 7.899425000000001 8.611124 7.936634000000001 7.5807850000000006 7.936634000000001 7.617994 7.936634000000001 8.573913000000001 7.936634000000001 9.405624000000001 7.5435740000000004 10.042902000000002 7.5807850000000006 8.611123 9.331202000000001 8.573913000000001 7.936634000000001 7.617994 7.936634000000001 8.255274 7.6179950000000005 8.292484 7.899424000000001 8.929764 8.573914000000002 9.724263 6.906294 7.262144 8.573914000000002 9.724263 7.862214000000001 8.255274 8.573914000000002 9.248403 7.580784 7.9366330000000005 8.255274 10.080113 7.224935 8.292484 7.262144 8.573913000000001 7.6179950000000005 8.255273 8.929763000000001 8.573913000000001 6.980715000000001 9.124193000000002 7.936634000000001 6.380648000000001 12.182182000000001 7.862214000000001 11.073242 9.492621 7.299354 11.660734 9.844272 8.573914000000002 8.573913000000001 8.255272999999999 8.255274 8.292484000000002 8.255272999999999 8.255273 6.980715000000001 7.9366330000000005 7.936634000000001 11.904952000000002 6.906294000000001 8.573913000000001 7.899424000000001 9.248403 8.255273 7.936634000000001 8.892553 8.255272999999999 8.255273 9.724263 7.862214000000001 7.692415000000001 14.367068 8.056645000000001 7.336565 8.693924000000003 5.991784000000001 16.593346 9.525633000000001 7.936634 8.255274 7.299355 7.936634000000001 8.929763000000001 8.218064000000002 8.255273 8.611124 7.9366330000000005 8.375284 6.624866 9.012563 13.055302 8.536702 8.929763 9.687052 8.929762 8.573913000000001 7.299355 7.9366330000000005 7.936634000000001 8.255272999999999 6.980715000000001 7.9366330000000005 11.511892000000001 8.855343 9.761473 7.862214000000001 8.573913000000001 7.936635 7.617993000000001 7.936634000000001 8.573913000000001 8.255273000000003 8.573913000000001 8.255274 7.6179950000000005 7.017926 8.611124 7.936634 8.929764000000002 8.255273 7.936634000000001 8.255274 8.292484000000002 7.936634000000001 7.617994 8.255274 8.929764000000002 9.885682000000003 7.6179950000000005 7.936634000000001 7.617994 8.255273 7.899424000000001 8.255273 7.9366330000000005 7.8994230000000005 8.573914000000002 8.255273 8.255274 7.299355 8.573913000000001 6.980716 8.218064000000002 7.617993000000001 8.255272999999999 7.299355 8.255274 7.936633000000001 8.573913000000001 7.936634000000001 7.617994 8.573913000000001 8.255273 7.936634000000001 7.936634000000001 7.9366330000000005 8.292484000000002 8.255272999999999 8.218064000000002 9.248404 7.9366330000000005 7.617994 8.218063 7.617994 7.9366330000000005 7.9366330000000005 8.255274 6.980715000000001 7.617994 8.218064000000002 8.929764000000002 8.255272999999999 8.573914000000002 8.573914000000002 8.292484000000002 8.255273 8.892553 8.573913000000001 8.611124 8.255273 8.573913000000001 8.611124 7.9366330000000005 8.573913000000001 7.299356 7.617994 7.617994 8.255273 7.617994 7.617994 8.255273 7.336566 7.617994 8.573913000000001 8.255272999999999 7.617993000000001 8.255273 8.255273 8.255274 8.255273 7.9366330000000005 8.218064000000002 7.973844000000001 8.255272999999999 7.936635 8.573914000000002 8.573913000000001 8.255273 8.573913000000001 8.573914000000002 7.9366330000000005 7.936634000000001 8.573914000000002 8.929764000000002 8.292484000000002 7.936634000000001 8.573913000000001 8.292484000000002 7.9366330000000005 7.299354000000001 7.9366330000000005 8.573913000000001 8.573913000000001 7.617994 8.255274 7.9366330000000005 8.255272999999999 8.292484000000002 8.255274 8.255272999999999 6.980715000000001 8.573914000000002 8.573913000000001 7.936634000000001 8.255273 8.573913000000001 7.617994 7.936634000000001 8.255273 7.617994 7.9366330000000005 8.292484000000002 8.255274 7.973845000000001 8.573913000000001 7.6179950000000005 8.255274 8.255274 7.6552050000000005 8.573913000000001 8.892553 7.617993000000001 7.936634000000001 8.255273 7.973845 8.255274 8.292484000000002 8.573913000000001 8.255272999999999 8.255274 8.255272999999999 7.9366330000000005 7.936634000000001 6.980715000000001 8.573913000000001 8.892553 8.611124 8.892553 7.299354000000001 6.980715000000001 8.255272999999999 7.617994 7.936634000000001 7.9366330000000005 7.9366330000000005 8.255274 8.255273 8.611124 7.617994 8.966974 8.892553 7.936634000000001 8.255274 8.255273 7.9366330000000005 7.936634000000001 7.936634000000001 8.892553 7.9366330000000005 7.9366330000000005 8.255273 7.617994 8.611124 6.980715000000001 8.929764000000002 7.936633000000001 8.255272999999999 8.255273 8.255273 8.255272999999999 8.292484000000002 7.6552050000000005 7.936634000000001 8.292484000000002 8.611124 8.255273 7.299355 7.973844000000001 8.573914000000002 8.255272999999999 7.973844000000001 9.405624000000001 7.899424000000001 7.9366330000000005 7.9366330000000005 8.573913000000001 8.573913000000001 8.255273 8.255272999999999 7.299356 8.611124 7.9366330000000005 8.255273 9.724263 7.862214000000001 8.929764 8.892554 10.117324 7.862214000000001 11.549102000000001 7.224934 9.086984000000001 7.6179950000000005 7.617994 8.375284 8.611124 8.255274 7.617994 8.573914000000002 7.373776000000001 11.784923000000001 7.862213000000001 10.080113 6.906295 9.405624000000001 7.5435740000000004 5.673145000000001 17.387845 9.844272 10.754603000000001 8.499493000000001 10.754602 7.5435740000000004 9.724263 7.5435740000000004 9.405623 8.218064000000002 9.724263 7.936635000000001 11.110453 7.224934 9.724263 7.5435740000000004 8.011055 10.560174000000004 10.713192 12.579442 7.862213000000001 10.754602 8.292484 11.15604 8.929763 7.936634000000001 7.973845000000001 7.9366330000000005 7.6179950000000005 7.936634000000001 7.299354000000001 8.573913000000001 8.611124 8.218063 7.373776000000001 10.477353 6.906294 12.699451 7.224934 6.347634000000001 10.713192000000001 11.073242 7.224934 11.073242 8.929762 10.837401000000002 7.9366330000000005 8.218064000000002 8.292484000000002 7.299354000000001 7.936634000000001 7.9366330000000005 8.255273 8.573913000000001 9.442835 8.180854 7.655204 8.375284 8.255274 7.936634000000001 9.248403 7.936634000000001 7.617994 7.617993000000001 8.929764 8.573914000000002 6.310425000000001 11.424892000000002 7.617994 7.936634000000001 10.398752 7.899424 11.073241000000001 7.862214000000001 8.929763000000001 8.218064000000002 8.255272999999999 7.299355 8.255274 7.936634000000001 9.724263 7.899425000000001 9.086985 8.180852999999999 10.717392 8.375284 7.655204 8.056644000000002 12.066371 7.862214000000001 7.299355 8.573914000000002 7.617994 8.255274 8.573913000000001 8.292484000000002 8.292484 7.738005 9.761474 7.5435740000000004 11.147663999999999 8.180852000000002 10.117324 8.218064000000002 9.248403 8.573914000000002 7.9366330000000005 8.573914000000002 7.9366330000000005 8.536704 9.724263 7.899425000000001 11.904952 7.5435740000000004 9.761474 6.2690150000000004 8.611124 7.299355 7.899424000000001 8.255274 8.255273 8.255273 8.255272999999999 6.980716 7.9366330000000005 8.573913000000001 8.929764 7.936634000000001 7.299354000000001 7.617994 9.086985 8.218064000000002 7.936634000000001 7.617994 7.617994 8.255274 8.255274 6.980715000000001 10.435964 8.218064000000002 8.929764000000002 7.936634000000001 8.255273 7.936634000000001 8.255273 7.9366330000000005 7.9366330000000005 7.617994 8.292484000000002 7.936634000000001 8.329694000000002 11.387683 8.218064000000002 7.175146000000001 8.693924000000003 11.904952000000002 10.990444 10.518762 8.929764000000002 7.936634000000001 8.255274 8.255274 8.255272999999999 7.9366330000000005 7.9366330000000005 7.936634000000001 9.761474 7.5435740000000004 13.018092000000001 7.262144 11.867741 7.543572999999999 7.936634 8.255274 8.292484000000002 8.292484000000002 6.980715000000001 7.9366330000000005 8.255273 8.573913000000001 7.936634000000001 8.255273 8.573914000000002 8.255274 7.8994230000000005 7.9366330000000005 7.299355 8.056645000000001 8.929764000000002 8.292484000000002 8.292484000000002 7.299356 10.593183 7.862214000000001 8.892553 7.936634 7.936634000000001 7.6179950000000005 7.299355 8.255274 6.980716000000001 8.255274 9.724263 8.532504000000001 9.918695 7.617994 8.892553 8.573913000000001 9.248403 8.611124 9.761474 7.862213000000001 7.973844000000001 8.255274 7.936633000000001 6.980716 8.611124 7.617994 8.966974 8.255273 10.754602 7.862214000000001 5.913165 16.146322000000005 0.0 11.549102000000001 4.994458000000001 14.574076000000002 8.255274 7.6179950000000005 7.617994 7.617993000000001 8.892553 
0.0 6.641639000000001 4.998656 4.961445 4.642806000000001 4.924235 4.642806 4.961445 4.286956000000001 5.280085000000001 4.961445 4.961445 4.642806 4.286956000000001 4.642806 4.961445 4.642807 4.961445 4.605595 4.642806 4.9614460000000005 4.642806 4.9614460000000005 4.642806 4.642806 4.998656000000001 4.9614460000000005 5.598724000000001 4.642806 4.961445 4.642806 4.605595 4.642806 4.642807 4.9614460000000005 4.961445 4.642806 4.642807 3.9683170000000003 4.642806 4.9614460000000005 5.917363000000001 4.605595 4.642806 4.961445 4.9614460000000005 4.642806 4.961445 4.642806000000001 5.280085000000001 4.961445 5.280084 5.280085000000001 4.605595 4.642806000000001 4.998656 5.280085000000001 4.998656 4.642806 5.280084 4.605595 4.642806 5.598724000000001 4.961445 4.605595 4.642806 5.280085000000001 4.642806 5.280084 4.605595 4.961445 5.280085000000001 4.605595 4.642806 4.9614460000000005 4.605595 4.961445 4.605595 4.642806 4.642806 5.280084 4.642806 4.286956000000001 4.9614460000000005 4.961445 4.605595 5.280084 4.961445 5.280085000000001 4.9614460000000005 4.961445 4.642806 4.961445 4.642806 4.286956000000001 4.961445 4.961445 5.3172950000000005 5.280085000000001 4.961445 4.605595 4.680017 4.642806 4.961445 4.961445 5.317295000000001 4.9614460000000005 4.605595 5.3172950000000005 4.961445 4.9614460000000005 5.954574 4.642806 5.598723000000001 4.961445 5.280085000000001 6.360211000000001 5.3172950000000005 4.998656000000001 4.998656000000001 4.9614460000000005 4.961445 4.961445 4.642807 4.605595 5.280085000000001 4.961445 5.280085000000001 4.961445 4.961445 5.280084 4.286956000000001 5.280085000000001 4.605595 4.642806 4.605595 4.642807 4.961445 4.961445 4.961445 4.961445 4.961445 4.286956000000001 5.3172950000000005 4.324167 4.605595 4.961445 4.605595 4.961445 4.642806 5.280084 4.9614460000000005 4.286956000000001 4.286956000000001 4.680017 4.961445 4.961445 4.642806 4.9614460000000005 4.642806 4.961445 4.642806 5.280084 4.286956000000001 4.286956000000001 3.9683170000000003 4.961445 4.642806 4.9614460000000005 4.961445 4.605595 4.998656000000001 4.605595 4.642806 5.598724000000001 4.9614460000000005 4.605595 4.961445 4.9614460000000005 4.961445 4.642806 4.961445 4.642806 4.642806 4.642807 4.605595 4.961445 4.961445 4.286956000000001 4.961445 4.642806 4.961445 5.317296000000001 4.961445 4.642806 4.961445 4.9614460000000005 4.642806 4.961445 4.961445 4.605596 4.642806 4.961445 4.642806 5.917363000000001 4.605595 4.605595 4.642807 4.961445 4.961445 4.286956000000001 4.642806 3.9683170000000003 5.280085000000001 4.961445 4.605595 5.317296000000001 4.9614460000000005 4.924234 4.166946000000001 6.273213000000001 3.848307 5.954573000000001 3.1366060000000004 6.310424000000002 3.8483070000000006 6.273213000000001 3.8110960000000005 5.917363000000001 4.961445 5.635935000000001 4.961445 4.642806000000001 4.961445 5.635934000000001 4.286956000000001 4.680017 5.280084 5.280085000000001 4.286956000000001 4.961445 4.286956000000001 5.954574000000001 4.129735 5.280085000000001 4.129735 5.598724000000001 4.129735 5.635935000000001 4.605595 5.635934000000001 3.8110960000000005 5.598724000000002 3.848306000000001 6.910491000000001 8.855340000000002 10.0471 3.4924560000000007 6.910492000000001 4.129735 6.273213000000001 4.129735 5.954574000000001 4.605595 4.286956000000001 5.317296000000001 5.2428740000000005 4.924235 4.642806 5.280085000000001 4.9614460000000005 4.605595 5.954574000000001 4.129735 5.917363000000001 7.862212000000002 6.827691000000001 5.954574000000002 3.1366060000000004 6.273213000000001 4.961445 11.904951 3.2608130000000006 4.605595 5.280085000000001 4.286956000000001 4.286956000000001 4.286956000000001 5.954574000000001 4.605595 5.635935000000001 3.8110960000000005 5.954574000000001 3.4924560000000007 5.954573000000001 5.118666 8.416692000000001 3.136607 6.273213000000002 4.642806 5.635934000000001 4.961445 5.635934000000001 5.280085000000001 5.280084 4.642806 6.273214000000001 4.129735 5.598724000000001 8.89255 9.335398000000001 3.1366060000000004 5.917363000000001 3.848306000000001 5.917363000000001 4.642806 4.605596 4.961445 4.961445 4.605595 4.166946000000001 4.286957 4.961445 3.8110960000000005 5.954573000000001 5.280084 8.098051000000002 5.280084 5.280085000000001 4.642806 5.917363000000001 4.005528 5.635934000000001 3.8110960000000005 5.598723000000001 3.4924560000000007 5.598723000000001 2.8179670000000003 5.635935000000001 4.961445 4.961445 4.961445 4.642806 4.961445 4.642806 4.605595 5.954574000000001 4.166945000000001 5.917362000000001 3.6124660000000004 5.954574000000002 4.129735 5.635935000000001 4.129735 5.598724000000002 5.280084 5.2428740000000005 4.605595 5.487091 4.924234 4.642806 5.280084 5.280085000000001 4.961445 5.917364000000001 3.848306000000001 5.598723000000001 9.848469000000001 11.003019 3.8110960000000005 6.273213000000001 4.286956000000001 5.954574000000001 4.129735 6.517431000000001 3.8110960000000005 4.129736000000001 3.8110960000000005 4.804225000000001 3.8110960000000005 5.954574000000002 4.448375 4.129735 3.8110960000000005 4.961445 4.129735 5.280085000000001 4.448374 5.280085000000001 4.055313 4.804225000000001 4.249745000000001 4.605595 3.8110960000000005 4.605595 3.9683170000000003 5.280085000000001 4.605595 5.280085000000001 3.612467 5.122864000000001 3.4924560000000007 6.554642000000001 4.286956000000001 6.749073000000001 5.598724000000001 5.917364 4.961445 4.605595 5.317296000000001 4.924234 4.605595 6.517431000000001 4.605595 6.310424000000001 4.166946000000001 7.584980000000002 3.293828 4.961445 4.961445 4.998656000000001 4.129735 6.947702000000001 3.8110960000000005 6.873281000000001 3.8110960000000005 6.273213000000001 3.8110960000000005 6.273213000000001 4.605595 5.280084 4.605595 5.598724000000001 4.166946000000001 5.917363000000001 3.8483070000000006 6.517431000000001 3.885517000000001 6.591852000000001 4.605595 4.9614460000000005 4.9614460000000005 4.605595 4.9614460000000005 4.961445 4.605595 5.3172950000000005 3.6124660000000004 6.078782000000002 4.642806 4.642806 4.961445 4.605595 4.286956000000001 4.642806 4.324167 4.961445 4.286956000000001 5.280085000000001 4.166946000000001 6.273213000000001 3.2938270000000003 5.160075 4.961445 4.642806 5.280085000000001 5.280084 4.642806 4.924235 4.286956000000001 4.605595 4.166946000000001 6.7988610000000005 4.129735 6.310424000000001 3.8110960000000005 6.273213000000001 8.499491 9.016758 5.280084 5.3172950000000005 4.642806 5.280085000000001 4.605595 4.642806 4.286956000000001 4.9614460000000005 5.280085000000001 4.961445 4.605595 5.280085000000001 8.180852000000002 6.078781000000001 6.591852000000001 3.4924560000000007 5.598724000000002 4.642806 12.505018999999999 3.935303 4.286956000000001 4.605595 4.605596 4.605595 5.280084 4.642807 5.280085000000001 4.642806 5.3172950000000005 4.9614460000000005 5.280085000000001 4.961445 3.848306000000001 5.954573000000001 5.954573000000001 8.342272000000001 4.924234 5.280085000000001 4.9614460000000005 5.280084 4.961445 5.317296000000001 4.9614460000000005 4.605595 3.848306000000001 6.273213000000002 5.635934000000001 8.098053 4.961445 4.9614460000000005 4.642806 4.605595 4.605595 4.961445 4.9614460000000005 4.961445 4.961445 4.324167000000001 4.924235 4.129735 5.3172950000000005 4.961445 4.961445 3.8110960000000005 3.848306000000001 5.280084 6.111794000000001 8.098052000000001 4.804224000000001 7.303553000000003 4.961445 4.642806 4.961445 4.9614460000000005 5.280085000000001 4.961445 4.961445 5.954574000000001 3.1366060000000004 6.273213000000001 2.8179670000000003 6.629063000000001 4.961445 4.961445 4.961445 4.286956000000001 4.998656000000001 4.9614460000000005 4.642806 4.642806 4.605595 4.605595 4.961445 5.3172950000000005 5.598723000000001 8.023631000000002 6.273213000000001 8.453903 4.642806 4.642806 5.280085000000001 4.642806 4.642806 5.280085000000001 4.642806 4.9614460000000005 5.280085000000001 4.286956000000001 4.166946 5.954574000000001 8.818130000000002 5.284281 6.591852000000001 3.1366060000000004 5.515925 3.6496770000000005 7.617994000000001 3.9353020000000005 4.998656000000001 4.924235 4.286956000000001 4.642806 4.286956000000001 4.605595 3.4924560000000007 5.242874000000001 8.180852000000002 9.69125 3.4924560000000007 5.3172950000000005 4.605595 4.961445 4.961445 4.286956000000001 4.605595 4.642806000000001 4.9614460000000005 4.642806 4.961445 4.605595 4.485585 4.998656000000001 9.173979000000001 9.335398000000001 4.642806000000001 4.642807 4.605595 4.642806 4.9614460000000005 4.961445 4.961445 4.961445 4.9614460000000005 4.961445 4.642806 5.685722 4.998656 4.961445 4.642806 4.642806 5.280084 4.642806 4.642806 4.286956000000001 4.129735 5.317295000000001 4.961445 4.642806 4.642806 4.324167 5.280085000000001 4.9614460000000005 4.605595 5.317296000000001 4.961445 4.642806 4.961445 4.9614460000000005 4.642806 4.961445 5.280085000000001 5.280085000000001 4.961445 5.280084 4.324167000000001 4.286956000000001 4.286956000000001 5.797353000000001 4.642806 4.605595 4.642806 5.3172950000000005 4.9614460000000005 4.642806 4.961445 4.642807 4.286956000000001 4.642806000000001 5.280085000000001 4.961445 4.129735 5.317296000000001 4.286956000000001 4.605595 4.998657000000001 4.605595 4.605595 4.286956000000001 4.286956000000001 4.605595 4.642806000000001 4.961445 4.448374000000001 4.680017 4.961445 4.642807 5.598724000000001 4.961445 5.441503000000001 4.642806 4.961445 4.642806000000001 4.998656000000001 4.642807 4.642806 4.286956000000001 4.998656000000001 5.317296000000001 5.598724000000001 4.642806 4.286956000000001 4.9614460000000005 4.961445 4.642806 4.642807 4.961445 4.642806 4.961445 5.317296000000001 4.286956 4.605595 5.317296000000001 3.931106 4.924235 4.286956000000001 5.317296000000001 5.280085000000001 4.286956000000001 5.317296000000001 4.642806 4.605595 5.354507000000001 4.9614460000000005 4.605595 4.642806000000001 4.448374000000001 4.998656 4.9614460000000005 4.9614460000000005 5.280085000000001 4.605595 4.9614460000000005 4.642806 4.605595 4.642806 4.642806 5.280085000000001 4.605595 4.998656000000001 4.286956000000001 4.605596 4.961445 4.642806 4.961446000000001 4.642806 4.961445 4.961445 4.642806 4.605595 4.642806 4.998656000000001 4.961445 4.9614460000000005 4.605595 4.286956000000001 5.317296000000001 4.605595 5.280085000000001 4.642806 4.642806 4.324167 5.280085000000001 4.605595 4.9614460000000005 4.642806 4.286956000000001 4.998656000000001 4.9614460000000005 4.924235 4.605595 4.642806 4.9614460000000005 4.961445 4.286956000000001 5.317296000000001 4.286956000000001 4.961445 4.286956000000001 4.286957 4.9614460000000005 4.642806 4.642806 4.9614460000000005 4.286956000000001 4.642806 4.642806 4.605595 4.642806000000001 4.924235 3.9683170000000003 4.286956000000001 5.280084 5.793156000000001 5.280085000000001 4.605595 4.642806 4.998657000000001 5.598724000000001 4.642806 4.642806 4.286956000000001 4.9614460000000005 4.642806 4.605595 4.680017 4.961445 4.286956000000001 4.324167000000001 4.642806 4.642806 5.954573000000001 8.135263 4.961445 5.280085000000001 4.961445 4.961445 4.286956000000001 4.605595 4.961445 4.286956000000001 4.129735 4.286956000000001 4.129735 5.917364000000001 3.1366060000000004 5.917363000000001 3.1366060000000004 6.273213000000001 4.129735 5.954574000000001 3.8110960000000005 7.510560000000002 4.129735 5.598724000000002 4.166946000000001 6.273213000000001 3.8110960000000005 5.598724000000002 3.136607 4.3283640000000005 3.1366060000000004 4.642806000000001 4.605595 5.317296000000002 4.129735 5.954574000000001 4.129735 6.836071000000001 5.913165000000001 8.466478 8.023632000000001 4.485585 7.6677810000000015 3.2938270000000003 7.9738450000000025 3.6166630000000004 4.166946000000001 6.273213000000001 4.642806 6.8732820000000014 4.166946 5.3172950000000005 5.598724000000001 4.642806 3.1366060000000004 5.2428740000000005 4.204157 6.273213000000001 8.536703000000001 8.5409 7.303553000000002 3.931106 5.917363000000001 3.6124660000000004 8.648335000000001 2.5863240000000003 4.605595 5.635935000000001 4.448374 5.805731 4.642806 5.635935000000001 4.166946000000001 6.273213000000001 8.536703000000001 11.234661000000003 5.280085000000001 3.1738170000000006 5.280085000000001 8.855340000000002 13.456739 4.928432000000001 4.286956000000001 5.3172950000000005 4.998656 4.286956000000001 4.485585 7.349141000000001 4.961445 4.605595 3.8110960000000005 5.954573000000001 8.536704000000002 9.178179 9.372610000000003 7.7794120000000015 9.372609000000002 6.273213000000001 11.867741999999998 2.904964 4.129735 6.273213000000001 4.642806 5.280085000000001 4.605595 4.286956000000001 4.286956000000001 5.280085000000001 3.4552460000000003 6.273213000000001 3.5296670000000008 5.954574000000002 9.848470000000002 9.654038 3.848306000000001 5.954574000000002 4.605595 4.605595 4.605595 4.286956000000001 4.9614460000000005 4.286956000000001 3.1366060000000004 6.591852000000001 5.954573000000001 8.342271000000002 5.280085000000001 5.280085000000001 4.961445 4.961445 4.961445 4.286957 4.605595 5.280085000000001 4.286956000000001 4.680017 4.767015000000001 8.098051000000002 4.961445 4.286956000000001 4.166946000000001 6.591853000000001 4.605595 7.191921000000002 3.9683160000000006 6.273213000000001 4.961445 4.924235 4.9614460000000005 4.605595 4.129735 5.673145000000001 3.6124660000000004 6.273212000000001 3.4924560000000007 4.8042240000000005 4.605595 5.122864000000001 4.485585 5.954574000000001 3.848306000000001 6.273212000000001 3.8110960000000005 5.954574000000001 3.6124660000000004 5.635935000000001 4.605595 4.998656000000001 4.286956000000001 6.591853000000001 4.924234 5.635935000000001 3.6124660000000004 6.273213000000001 4.129735 5.954574000000002 3.6124660000000004 6.591852000000001 4.129735 5.635935000000001 4.485585 6.517431000000001 4.605595 5.2428740000000005 4.961445 5.635935000000001 3.1366060000000004 5.598724000000002 4.166946000000001 5.561513000000001 4.485585 6.310424000000001 4.961445 4.961445 5.280084 4.642806 4.9614460000000005 4.642806 3.8110960000000005 6.273213000000001 4.166946000000001 6.554642000000001 10.167109 10.009889 4.961445 5.954574000000001 4.605595 4.961445 4.961445 4.924235 4.642806 4.961445 4.998656000000001 4.642806 4.129735 5.635935000000001 4.841435000000001 8.135263 4.961445 4.998656000000001 4.286956000000001 4.605595 4.605595 4.998656000000001 4.9614460000000005 4.605595 4.961445 4.998656000000001 4.324167 4.961445 4.998656000000001 4.961445 9.848470000000002 8.060842000000001 4.961445 7.986421000000002 4.642807 4.961445 4.605595 4.605595 4.605596 4.924235 4.286956000000001 9.529829000000001 9.691249000000001 4.605595 4.642806 3.9683160000000006 4.129735 4.605595 7.067712000000001 4.961445 5.280085000000001 4.642806 4.887024 4.129735 6.749073000000001 4.129735 5.954574000000001 4.129735 5.598724000000001 4.129735 6.836070000000001 4.605595 4.961445 5.598724000000001 4.961445 4.961445 4.961445 5.3172950000000005 5.280084 4.129735 6.273213000000001 3.8110960000000005 6.273213000000001 4.129735 7.6677810000000015 4.680017 4.961445 5.280084 4.961445 4.961445 5.598723000000001 4.129735 6.273213000000001 4.129735 5.954574000000001 4.166946000000001 5.954574000000002 4.961445 5.954574000000001 4.166946000000001 5.598723000000001 4.286956000000001 5.280084 4.129735 6.629063000000001 5.3172950000000005 5.991785000000001 3.848306000000001 6.591852000000001 4.129735 4.961445 4.642806 5.280085000000001 4.642806 4.129735 4.642806000000001 5.280085000000001 5.118666 4.961445 8.818131000000001 6.115991000000001 5.598724000000001 3.1366060000000004 5.441502000000002 5.635934000000001 12.22359 2.9793840000000005 4.605595 4.286956000000001 4.961445 4.605595 4.961445 4.961445 4.961445 5.280084 4.961445 4.324167 3.1366060000000004 4.804225 4.605595 4.9614460000000005 4.166946 4.605595 4.961445 4.642806000000001 4.642806 4.605595 4.166946000000001 5.598724000000002 6.906296000000001 5.404292000000001 9.016761 6.591853 7.986421000000001 7.742202000000001 14.967135999999998 4.291154000000001 5.280084 4.605595 5.280085000000001 4.961445 4.924234 4.286956000000001 4.961445 4.924235 4.961445 6.749073000000001 5.917363000000001 7.6677810000000015 4.406966000000001 5.284282 4.485585 6.798860000000001 4.642806 4.642806 5.280085000000001 4.961445 4.961445 4.998656 5.598724000000001 4.961445 4.411163 5.122864000000002 2.8179670000000003 5.954573000000001 4.998656000000001 5.0856520000000005 4.680017 4.605595 4.286956000000001 4.9614460000000005 4.961445 4.605595 5.317296000000001 4.961445 5.280085000000001 4.680017 4.605595 4.961445 4.642806 4.924234 4.642806 5.280084 5.280084 4.249745000000001 4.286956000000001 5.598723000000001 4.605595 4.605596 4.961445 4.605595 4.642806 4.9614460000000005 4.961445 4.286956000000001 5.280084 4.998656000000001 4.961445 4.961445 4.961445 4.961445 4.605595 5.280085000000001 4.961445 5.598723000000001 4.961445 5.280085000000001 4.605595 4.961445 5.635935000000001 4.605596 4.605595 4.961445 5.280085000000001 4.286957 4.961445 4.961445 4.924234 4.642807 4.642806 4.961445 5.280085000000001 4.961445 4.961445 4.642806 4.642806 5.280084 4.961445 4.605595 5.3172950000000005 4.961445 3.9683170000000003 4.605595 4.324167 4.642806 4.642806000000001 4.286956000000001 4.605595 4.605595 4.605595 4.286956000000001 4.642806 4.324167 4.961445 4.961445 4.642806 4.924235 5.280084 4.961445 5.280085000000001 5.598724000000001 4.961445 5.280085000000001 5.280085000000001 4.9614460000000005 4.605595 4.642806 4.605595 4.605595 5.3172950000000005 4.924234 5.317296000000001 4.961445 4.642806 4.286956000000001 4.605595 4.961445 4.642806 4.605595 4.642806 4.961445 4.924234 4.642806 4.961445 4.642806 4.286956 4.642806 4.998656000000001 4.642806 4.961445 4.286956000000001 4.324167000000001 4.642806 4.961445 4.642806 4.286956 4.961445 4.642806 4.642806 4.961445 4.605595 4.642806000000001 4.961445 4.605595 4.642806000000001 4.9614460000000005 4.961445 4.998656000000001 4.642806 4.961445 4.998656000000001 4.324167 4.998656000000001 4.642806 4.998656000000001 5.3172950000000005 4.642806 4.9614460000000005 4.286956000000001 4.286956000000001 4.9614460000000005 4.961445 4.605596 4.961445 4.286956000000001 4.998657000000001 3.931106 4.961445 4.961445 4.9614460000000005 4.642806 4.324167 4.9614460000000005 4.605595 4.605596 5.317296000000001 4.286956000000001 5.954574000000001 5.598724000000001 4.961445 4.642806 4.961445 4.642806 4.9614460000000005 4.961445 4.605595 4.9614460000000005 4.642806 4.485585 4.642806000000001 5.317295000000001 5.280084 4.605595 4.642806 4.286956000000001 5.280085000000001 4.605596 4.961445 4.324167 4.642806 4.961445 3.9683170000000003 5.280085000000001 4.605595 4.9614460000000005 4.9614460000000005 4.605595 4.642806 5.280085000000001 4.9614460000000005 5.917363000000001 4.642806 4.9614460000000005 4.605595 4.998656 5.598724000000001 5.280085000000001 4.286956000000001 4.642807 4.642806 3.8110960000000005 5.280085000000001 4.642806 4.642806 3.9683170000000003 4.961445 4.961445 4.998656000000001 4.961445 4.605595 4.642806 4.9614460000000005 4.129735 6.517431000000001 4.129735 5.2428740000000005 4.522797000000001 5.917363000000001 3.6496770000000005 5.954573000000001 4.129735 6.310424000000001 4.961445 7.6677810000000015 4.129735 5.598724000000001 4.961445 5.598724000000001 7.543572000000002 9.3312 6.310424000000002 4.485586 6.910492000000001 4.166946000000001 5.954574000000002 8.855340000000002 15.724426999999999 4.291153 3.1366060000000004 5.280084000000001 3.1738170000000006 5.6359340000000016 3.8110960000000005 5.954573000000001 4.129735 5.917363000000001 3.8110960000000005 6.273213000000001 3.5296670000000008 5.954573000000001 4.129735 6.273214000000002 7.899424000000001 19.295507 8.379481 3.1366060000000004 5.954574000000002 3.848306000000001 8.573913000000001 2.3048950000000006 4.485585 6.273214000000001 5.598724000000001 4.961445 5.280084 5.280085000000001 4.9614460000000005 4.605595 4.129735 5.635935000000001 8.180852000000002 9.848468 5.160075 3.6124660000000004 5.635935000000001 8.255272000000001 9.335398000000001 3.1366060000000004 6.273213000000001 2.462117 7.936635000000001 2.2676840000000005 4.961445 4.605595 4.642807 4.9614460000000005 4.961445 4.9614460000000005 4.605595 4.605595 4.522796000000001 5.598723000000001 5.280084 7.6677810000000015 4.961445 4.642806 4.924234 4.961445 4.642806 4.286957 4.129735 5.954574000000001 8.180850000000001 9.372610000000002 4.961445 4.961445 3.5296670000000008 5.441502000000001 3.848306000000001 5.954574000000001 3.8110960000000005 5.598724000000001 5.280085000000001 5.954574000000001 4.605595 5.3172950000000005 4.129735 5.917363000000001 4.166946000000001 6.273213000000001 3.4552450000000006 4.129736 4.961445 7.423562000000001 3.1366060000000004 5.3172950000000005 5.280084 5.598724000000001 5.3172950000000005 4.961445 4.998656000000001 4.642806 3.8110960000000005 7.067712000000001 4.166946000000001 5.954573000000001 3.1366060000000004 5.441503 4.166946000000001 5.598724000000001 4.129735 5.598724000000001 5.3172950000000005 5.280084 4.9614460000000005 5.598724000000001 3.848306000000001 5.954573000000001 3.2938270000000003 5.280085000000001 4.166946000000001 5.954573000000002 4.642806 5.3172950000000005 4.961445 4.642806 4.249745000000001 4.961445 4.998656 5.280084 4.642806 4.961445 4.129735 4.642806 4.642806 4.961445 4.166946000000001 6.273213000000001 4.961445 4.961445 4.961445 4.642806 6.641639000000001 5.317295000000001 3.1366060000000004 4.9614460000000005 4.286956000000001 4.605595 4.961445 4.605595 4.961445 4.961445 4.998656000000001 4.642806 4.642806 4.998656000000001 8.536703000000001 8.296684 4.4855860000000005 6.111794000000001 7.423563000000001 3.4924560000000007 8.611124000000004 2.5863240000000003 4.9614460000000005 4.961445 5.280084 4.961445 4.961445 4.961445 4.642806 4.961445 4.166946000000001 5.598723000000001 3.3310380000000004 4.841436000000001 3.2938270000000003 6.273213000000001 5.280084 4.605595 5.280085000000001 5.3172950000000005 4.642806 5.280085000000001 4.605595 5.317296000000001 4.642807 4.605595 4.286956000000001 4.887024 4.605595 4.998656 4.605595 8.098052000000001 4.286956000000001 4.642806 4.998656000000001 5.280084 4.324167 5.598723000000001 4.961445 4.485585 4.998656000000001 5.317295000000001 5.954573000000001 4.998656000000001 5.317295000000001 5.280085000000001 6.554643 12.517594 6.910492000000001 4.961445 4.286956000000001 4.961445 4.129735 5.954574000000001 4.166946000000001 6.554641000000001 4.642806 5.598724000000001 5.280085000000001 5.598724000000001 4.605595 4.9614460000000005 3.8110960000000005 4.605595 3.848306000000001 6.554642000000001 9.455408000000002 9.405623 15.165767000000002 3.016597 9.848469000000003 0.0 4.605595 4.961445 5.280085000000001 5.280085000000001 4.605595 
9.848469000000003 3.931106 3.5752560000000004 2.619338 3.5752560000000004 3.612467 3.2938280000000004 2.937978 3.2566170000000003 3.2938280000000004 2.937978 2.937978 2.937978 3.612467 3.2566170000000003 2.975188 2.937978 2.937978 2.937977 3.2566170000000003 3.2566170000000003 2.937977 2.937978 3.2938280000000004 2.619338 2.619338 2.619338 2.937978 2.975188 2.619338 3.2566170000000003 2.937977 3.2938280000000004 3.2566170000000003 2.619338 2.937977 2.937978 3.2938280000000004 3.2566170000000003 3.2566170000000003 3.2938280000000004 2.656549 3.5752560000000004 2.937978 2.619338 2.975188 2.937978 2.937977 3.5752560000000004 2.937978 2.937977 2.937978 2.619338 3.2566170000000003 3.931106 3.2938280000000004 3.2566170000000003 3.612467 2.937977 2.937978 2.937977 2.937978 2.619338 2.937978 3.256616 3.2938280000000004 2.937978 2.937978 2.300699 3.2566170000000003 3.931106 3.2938280000000004 3.256616 3.2566170000000003 2.937978 2.937977 2.937978 2.937977 3.931106 3.2938280000000004 2.619338 2.619338 3.256616 2.937978 2.937978 2.937977 3.2938280000000004 2.937978 2.937978 3.612467 3.612467 3.2938280000000004 3.2938270000000003 2.937977 2.937977 2.937978 2.619338 2.937978 2.619338 3.2938280000000004 3.2566170000000003 3.612467 2.937978 2.619338 2.937978 3.2566170000000003 3.2566170000000003 3.2566170000000003 2.937978 2.619338 2.937978 2.975188 3.649678 2.300699 2.937978 3.2566170000000003 5.242873000000001 3.5752560000000004 2.937978 2.937977 2.937978 2.975188 2.937978 3.2566170000000003 3.2566170000000003 2.937978 2.937978 3.2938280000000004 2.975188 2.937978 2.300699 3.5752560000000004 2.937978 2.937977 2.937977 2.937977 3.2566170000000003 2.937978 2.937978 2.619338 3.2566170000000003 2.937978 3.2566170000000003 2.619338 3.2938280000000004 2.937977 3.2566170000000003 3.5752560000000004 2.937978 2.619338 2.619338 2.937978 3.5752560000000004 3.5752560000000004 3.2566170000000003 2.937978 2.937978 2.619338 2.937978 3.2938270000000003 2.619338 2.619338 2.619338 3.2566170000000003 3.256616 3.2566170000000003 2.619338 2.619338 3.2566170000000003 2.975188 2.937977 2.937978 3.2938270000000003 3.2938280000000004 2.300699 3.2938280000000004 3.612467 2.937978 2.937978 2.975188 2.619338 2.619338 3.2938280000000004 2.937978 2.937977 2.937977 2.937978 2.937978 3.612467 2.937978 2.619338 2.619338 3.2938280000000004 2.937978 2.937978 2.619338 2.937978 2.937978 2.300699 2.619338 3.612467 2.937978 2.300699 2.937978 2.656549 3.2566170000000003 3.2566170000000003 3.612467 2.937978 2.937978 3.5752560000000004 2.937978 3.5752560000000004 2.937978 2.619338 3.5752560000000004 3.2938280000000004 2.937978 2.619338 4.800026000000001 1.7876280000000002 5.474516000000001 2.619338 6.111796 3.3310380000000004 5.474516000000001 2.263488 4.406966000000001 2.263488 2.937978 2.263488 3.2566170000000003 3.2566170000000003 3.2566170000000003 2.300699 3.612467 2.937978 2.619338 2.937977 3.2566170000000003 2.937977 3.2566170000000003 1.944849 4.088326 2.263488 3.6124680000000002 2.5821270000000003 4.088326 2.263488 2.937977 2.619338 4.088326 2.263488 5.118666000000001 1.7876280000000002 2.9379760000000004 6.744875 5.7931560000000015 2.263488 4.406966000000001 2.263488 3.9311070000000004 1.7876280000000002 3.5752560000000004 3.5752560000000004 3.2566170000000003 2.975188 3.612467 2.937978 2.937978 3.2938280000000004 2.937977 2.619338 4.406966000000001 2.106267 1.18756 10.311753000000001 2.937977 6.149006 3.649677 4.800027 3.7240980000000006 6.513231000000001 3.6124660000000004 2.5821270000000003 3.5752560000000004 3.2566170000000003 3.5752560000000004 2.619338 2.937977 2.263488 4.088327 2.263488 5.081455 2.619338 4.088326 1.468989 4.725605 1.944849 2.937978 2.300699 2.937978 2.619338 2.937978 2.300699 2.937978 2.263488 4.406966000000001 2.5821270000000003 4.2497430000000005 6.070386000000001 6.111796 3.2938270000000003 5.118666000000001 2.5821270000000003 2.937977 2.619338 2.937978 2.619338 3.256616 3.9311070000000004 3.612467 3.2566170000000003 4.088326 2.619338 4.286955000000001 1.824839 2.619338 2.619338 3.2938280000000004 2.263488 2.619338 2.619338 4.088326 2.619338 5.793156 2.937977 5.7559450000000005 2.619338 2.619338 2.300699 2.937978 2.975188 2.937977 2.937978 2.937977 1.7876280000000002 4.837237 2.619338 6.587656000000001 2.619338 3.6124680000000002 2.263488 3.9311070000000004 2.263488 2.300699 2.5821270000000003 2.937977 2.5821270000000003 3.612467 2.937978 2.619338 3.2566170000000003 2.937977 2.263488 6.149006 2.937977 3.9311040000000004 6.389025 4.406966000000001 1.7876280000000002 3.2566170000000003 1.468989 3.6124680000000002 1.7876280000000002 4.406966000000001 2.7807570000000004 4.444176000000001 2.937978 4.800026000000001 1.7876280000000002 2.937978 3.293828 3.612467 2.937977 3.293828 2.5821270000000003 3.293828 2.106267 5.4745170000000005 3.612467 3.256616 2.937977 3.649678 2.937977 3.256616 2.937978 3.2566170000000003 3.256616 7.063514000000001 4.088326 5.437306000000001 2.263488 3.612467 1.7876280000000002 2.937977 1.7876280000000002 3.2938280000000004 2.937977 3.612467 2.937977 3.5752560000000004 2.106267 3.612467 1.7876280000000002 4.762816000000001 2.499328 4.762816000000001 2.619338 3.256616 2.619338 3.612467 1.468989 4.088326 2.263488 4.406966000000001 1.944849 4.088326 2.263488 3.2566170000000003 2.619338 3.2566170000000003 2.300699 4.762815 2.5821270000000003 5.118666000000001 2.5821270000000003 5.474516000000001 2.619338 3.2566170000000003 3.2566170000000003 2.937978 3.2566170000000003 2.937977 2.937978 3.2566170000000003 2.656549 6.306227 4.088326 3.5752560000000004 2.937977 3.2566170000000003 3.2566170000000003 3.5752560000000004 3.931106 3.2938280000000004 2.937978 3.256616 3.2566170000000003 5.081455 1.944849 7.063514000000001 2.619338 2.937978 2.937977 2.937978 2.656549 3.2566170000000003 3.2938270000000003 3.2566170000000003 2.937977 4.762816000000001 2.263488 3.9311070000000004 2.106267 4.406965 2.263488 2.9007650000000003 6.744875 2.300699 2.619338 2.937977 3.2938280000000004 3.2566170000000003 2.937978 3.256616 3.2938280000000004 3.2938280000000004 2.975188 3.2566170000000003 3.2566170000000003 1.0303390000000001 9.918692000000002 2.619338 6.306227 3.256616 4.762817 4.605593000000001 6.194592 3.2566170000000003 2.937977 3.931106 3.612467 2.937978 3.612467 2.937978 2.619338 3.2938280000000004 2.937978 3.2938280000000004 2.975188 4.444176000000001 2.300699 3.3310380000000004 1.7876280000000002 2.619338 3.5752560000000004 3.2938280000000004 2.975188 2.619338 2.937977 3.2938280000000004 3.612467 4.725605 2.619338 3.649677 1.7876280000000002 3.5752560000000004 2.937977 2.937978 3.256616 3.2566170000000003 3.2566170000000003 3.2938280000000004 2.937978 3.2566170000000003 3.5752560000000004 3.612467 3.6124680000000002 3.2566170000000003 2.300699 2.975188 3.9311070000000004 4.762816000000001 2.937977 4.125537 2.143478 4.324167 2.499328 3.2566170000000003 2.937977 2.619338 2.937978 2.975188 2.619338 3.2566170000000003 1.944849 5.7559450000000005 2.619338 6.149006 3.2938270000000003 2.975188 2.300699 2.937978 3.2566170000000003 3.2566170000000003 3.2566170000000003 2.619338 3.2566170000000003 3.256616 3.2566170000000003 3.2566170000000003 2.619338 3.293827 1.7876280000000002 2.975188 2.143478 2.937977 3.5752560000000004 3.2938280000000004 2.937978 2.937977 2.937978 3.2566170000000003 3.2566170000000003 2.619338 3.2566170000000003 3.9311070000000004 2.619338 0.7117 9.442833000000002 2.619338 5.793156 2.975188 5.594526 2.0234680000000003 6.194592 3.612467 3.5752560000000004 3.2566170000000003 2.937978 3.5752560000000004 3.2566170000000003 4.725605 2.5821270000000003 2.9379760000000004 6.389025 5.437306000000001 2.937977 3.256616 3.2566170000000003 2.937978 3.612467 3.2566170000000003 3.5752560000000004 2.937978 2.937978 2.937978 3.5752560000000004 4.249746 3.2566170000000003 3.5752540000000006 6.744875 3.5752560000000004 2.937978 3.5752560000000004 2.937977 3.2566170000000003 3.2938270000000003 2.937978 2.937977 3.2566170000000003 2.656549 3.2566170000000003 4.249745000000001 3.2566170000000003 2.937977 3.2566170000000003 3.2566170000000003 2.300699 3.2566170000000003 3.2566170000000003 3.2566170000000003 3.9683170000000003 3.2566170000000003 2.937978 2.937977 2.937977 2.937978 3.2938280000000004 2.975188 2.937977 2.937978 3.612467 2.937978 3.2566170000000003 3.2938280000000004 2.937978 2.619338 2.937978 3.2938280000000004 2.300699 2.619338 3.5752560000000004 3.612467 3.2566170000000003 3.848307 3.256616 2.937978 2.937977 3.2938280000000004 3.612467 3.2566170000000003 3.5752560000000004 3.2938280000000004 3.5752560000000004 3.931106 2.937978 2.937978 3.612467 3.2938280000000004 3.2566170000000003 3.256616 3.612467 3.2566170000000003 3.5752560000000004 3.5752560000000004 2.937977 3.2566170000000003 3.2566170000000003 3.5752560000000004 4.444176000000001 3.5752560000000004 3.612467 3.612467 2.975188 2.619338 3.931105 3.5752560000000004 2.937978 3.5752560000000004 3.2566170000000003 3.612467 2.937978 3.2566170000000003 3.2566170000000003 3.612467 2.975188 3.2938280000000004 3.256616 2.937978 2.937977 2.937977 3.2566170000000003 3.2938280000000004 2.619338 2.619338 2.937978 2.619338 3.2566170000000003 3.2938280000000004 3.2566170000000003 3.612467 3.2566170000000003 3.612467 2.937978 3.2566170000000003 3.2566170000000003 2.937978 2.937977 4.005528 3.2938280000000004 3.2566170000000003 3.5752560000000004 4.286956 3.5752560000000004 3.2566170000000003 2.975188 2.937978 3.256616 2.937978 2.937978 3.2566170000000003 3.2566170000000003 2.937977 3.2938280000000004 2.937977 3.2566170000000003 3.256616 3.612467 2.937978 3.2566170000000003 2.619338 2.937978 2.300699 2.300699 2.619338 3.2938270000000003 3.2566170000000003 2.619338 2.619338 2.937978 2.937977 2.937977 2.937978 2.937977 3.2938280000000004 3.2938280000000004 3.2566170000000003 3.2938270000000003 3.2938280000000004 3.2566170000000003 3.2566170000000003 2.937978 3.2566170000000003 3.2566170000000003 3.2566170000000003 3.5752560000000004 3.5752560000000004 2.619338 3.2566170000000003 3.2938280000000004 3.5752560000000004 3.2566170000000003 3.2566170000000003 2.619338 3.5752560000000004 3.5752560000000004 3.2938280000000004 2.975188 2.937978 2.937978 3.2566170000000003 3.2566170000000003 2.937977 3.2566170000000003 3.2566170000000003 3.5752560000000004 3.931106 3.5752560000000004 2.937978 4.088327 2.975188 3.931106 2.619338 3.612467 3.2938280000000004 2.975188 2.937978 3.5752560000000004 2.937978 3.2938270000000003 3.2938270000000003 3.2566170000000003 3.2938280000000004 3.2566170000000003 3.5752560000000004 2.937977 2.937977 3.968316 2.143478 3.2938270000000003 2.937978 2.937978 2.619338 3.256616 3.612467 2.619338 2.937977 3.9683180000000005 3.2566170000000003 3.769687 2.263488 6.149006 2.937977 5.437305 2.619338 4.406966000000001 1.7876280000000002 4.088326 1.7876280000000002 3.6124680000000002 2.106267 4.406966000000001 1.944849 4.406966000000001 1.7876280000000002 6.149007000000001 3.931106 5.081455 3.256616 3.2566170000000003 1.7876280000000002 3.612467 1.7876280000000002 4.406966000000001 2.106267 1.0303390000000001 8.851143000000002 1.7876280000000002 4.324167 1.468989 7.419364000000002 1.0303390000000001 6.83187 4.444176000000001 2.263488 2.937978 2.424906 3.6124680000000002 2.619338 2.619338 2.975188 5.7559450000000005 3.256616 5.118666000000001 1.7876280000000002 1.38619 10.038701000000001 2.143478 7.100726000000002 3.6124660000000004 6.269017 2.735167 6.194592 3.2938270000000003 2.106267 3.293828 2.5821270000000003 3.2938280000000004 1.7876280000000002 4.444176000000001 2.263488 1.38619 11.702121000000002 3.256616 7.299356000000001 3.256616 2.6193370000000002 12.500819 6.194592 3.2566170000000003 2.619338 2.937978 3.2566170000000003 3.6124680000000002 1.7876280000000002 3.2938280000000004 2.619338 4.762816000000001 2.937977 1.7048290000000001 10.038702000000002 2.143478 1.3117670000000001 6.070386000000001 2.975188 4.961443000000001 6.513231000000001 3.6124680000000002 2.106267 3.2566170000000003 2.263488 3.2566170000000003 2.937977 3.256616 2.619338 3.9311070000000004 1.7876280000000002 6.8234970000000015 3.6124660000000004 4.568382000000001 7.063514000000001 5.155877 2.619338 3.2566170000000003 3.5752560000000004 3.2566170000000003 3.5752560000000004 3.612467 3.5752560000000004 5.437306000000001 2.937977 3.968316 2.143478 2.937978 2.619338 3.2938270000000003 2.937978 2.937977 3.612467 3.2566170000000003 3.612467 3.5752560000000004 3.612467 4.286957 1.824839 2.937978 3.5752560000000004 4.406966000000001 2.263488 3.612467 2.106267 6.587656000000001 2.937977 3.612467 2.5821270000000003 3.2938280000000004 3.256616 3.2938280000000004 3.331038 6.587656000000001 3.6124660000000004 5.118667 3.612467 3.612467 2.937978 3.9311070000000004 1.944849 5.4745170000000005 2.619338 3.612467 2.263488 5.913165000000001 2.619338 3.2938270000000003 2.619338 3.2566170000000003 1.944849 2.619338 2.263488 5.913165000000001 2.619338 3.6124680000000002 1.7876280000000002 5.913165000000001 2.619338 3.6124680000000002 2.263488 4.088327 1.7876280000000002 3.2566170000000003 2.106267 3.2938280000000004 1.7876280000000002 5.118666000000001 2.619338 5.118666000000001 2.5821270000000003 3.9311070000000004 1.7876280000000002 2.619338 2.619338 2.300699 2.619338 3.2938280000000004 2.937977 4.406966000000001 1.944849 5.4745170000000005 2.263488 3.8938930000000003 6.070386000000001 3.2566170000000003 1.7876280000000002 3.256616 2.937978 2.619338 3.5752550000000003 3.931106 2.937978 2.937978 3.2938280000000004 3.612467 2.263488 4.6800180000000005 2.143478 2.937978 3.931106 3.256616 3.2566170000000003 3.2566170000000003 2.937977 2.619338 2.937977 3.2566170000000003 2.937977 3.2566170000000003 3.612467 3.2938280000000004 2.619338 4.887022000000001 7.063514000000001 3.5752550000000003 1.7876280000000002 3.2938280000000004 2.937978 2.937977 3.256616 3.612467 3.612467 3.5752560000000004 3.8938930000000003 6.426236000000001 3.2566170000000003 2.937977 6.111796 3.7696870000000002 3.2566170000000003 1.7876280000000002 2.619338 2.263488 2.937977 2.5821270000000003 3.9683180000000005 1.7876280000000002 3.9311070000000004 1.7876280000000002 3.2938280000000004 2.5821270000000003 3.612467 1.7876280000000002 3.6124660000000004 2.619338 2.263488 2.619338 2.619338 2.619338 3.2566170000000003 2.300699 4.088326 2.263488 4.725605 2.263488 3.6124680000000002 3.0621840000000002 3.5752560000000004 2.619338 2.937978 2.619338 2.937977 2.300699 3.2938280000000004 1.7876280000000002 3.612467 1.7876280000000002 4.762816000000001 1.944849 2.300699 1.7876280000000002 4.762816000000001 2.937977 2.937977 2.937977 3.9311070000000004 1.468989 2.937978 1.7876280000000002 4.800026000000001 2.263488 3.2938280000000004 2.619338 3.5752550000000003 2.619338 3.2566170000000003 3.6124680000000002 3.5752560000000004 2.937978 4.125538000000001 2.937977 0.35585 10.274542000000002 2.937977 5.437305 3.931106 3.931106 4.042737000000001 6.194592 3.256616 3.5752560000000004 2.937978 3.256616 3.2938280000000004 2.937978 3.2566170000000003 2.937978 2.937978 2.937977 6.269016000000001 2.937977 3.5752560000000004 2.937977 3.9311070000000004 3.2566170000000003 2.619338 3.5752560000000004 2.937978 3.2566170000000003 4.406966000000001 2.263488 1.0303390000000001 7.456577000000001 1.7876280000000002 3.2938270000000003 2.106267 1.787627 11.743528999999999 6.194592 2.937978 2.937977 2.619338 2.619338 3.612467 3.256616 3.2566170000000003 3.612467 2.937978 1.7876280000000002 2.937977 2.462117 7.419365000000001 3.612467 3.6124680000000002 3.418035 3.931106 3.2566170000000003 2.937977 2.937978 2.937977 2.937978 2.937978 2.937978 6.269015000000001 3.612467 5.437305 2.619338 3.2566170000000003 3.9683170000000003 3.5752560000000004 2.619338 3.2566170000000003 3.2566170000000003 2.937978 2.937977 3.2566170000000003 2.975188 2.7807560000000002 3.2566170000000003 3.612467 3.2566170000000003 2.619338 2.619338 3.2938280000000004 2.300699 2.300699 2.937977 3.612467 3.612467 2.937977 2.937977 2.619338 3.2566170000000003 2.937977 3.2566170000000003 2.937978 3.256616 2.937977 3.2566170000000003 2.619338 3.2566170000000003 3.2566170000000003 2.619338 2.937977 2.937978 2.937978 2.300699 2.619338 3.2566170000000003 3.2566170000000003 2.619338 2.619338 3.5752560000000004 3.2566170000000003 2.619338 2.937977 2.937978 2.975188 2.937978 2.937977 3.931106 2.937978 2.619338 3.2566170000000003 2.937977 2.937978 2.937978 2.937977 2.619338 2.619338 3.256616 3.612467 2.937978 3.256616 3.256616 3.2938280000000004 3.2566170000000003 3.5752560000000004 3.5752560000000004 3.612467 3.2566170000000003 3.5752560000000004 3.612467 2.937978 3.2566170000000003 2.937977 2.619338 2.619338 3.2566170000000003 2.937978 2.619338 3.2566170000000003 3.2938280000000004 2.619338 3.2566170000000003 2.937978 2.937978 3.2566170000000003 3.2566170000000003 2.937977 3.2566170000000003 2.937978 2.937977 3.2938280000000004 2.937978 2.937977 3.256616 3.2566170000000003 3.2566170000000003 3.2566170000000003 3.256616 2.937978 2.619338 2.937977 3.931106 3.2938280000000004 3.2566170000000003 3.2566170000000003 3.2938280000000004 2.937978 2.937978 2.937978 3.2566170000000003 3.5752560000000004 2.937978 2.937977 2.937978 2.937978 3.2938280000000004 2.937977 2.937978 2.937978 3.256616 3.5752560000000004 3.2566170000000003 3.2566170000000003 3.2566170000000003 2.937978 2.619338 3.2566170000000003 2.619338 2.937978 3.2938280000000004 2.937977 3.2938280000000004 3.2566170000000003 2.937977 2.937977 2.937977 3.2938280000000004 3.2566170000000003 3.5752560000000004 2.937978 2.619338 3.2566170000000003 3.2938280000000004 2.937977 3.2938280000000004 3.2566170000000003 2.937978 2.619338 2.937978 2.937978 2.937977 2.619338 3.2566170000000003 3.5752560000000004 3.2938280000000004 3.5752560000000004 2.937978 2.937978 2.937978 3.2566170000000003 2.619338 2.937978 2.937978 2.937977 3.2566170000000003 3.612467 2.937977 3.9683180000000005 3.5752560000000004 3.2566170000000003 2.619338 3.2566170000000003 2.937978 2.937977 2.937977 3.5752560000000004 2.937978 2.937978 3.2566170000000003 2.619338 3.612467 2.937978 3.6124660000000004 2.937978 2.937978 3.2566170000000003 3.2566170000000003 2.937978 3.2938280000000004 2.656549 2.937977 3.2938280000000004 3.612467 3.612467 3.2566170000000003 3.2938280000000004 3.256616 2.937978 2.975188 4.088326 2.263488 2.937978 2.937978 3.2566170000000003 3.2566170000000003 3.2566170000000003 2.937978 2.937977 3.612467 2.937978 3.2566170000000003 4.406966000000001 2.263488 3.612467 2.5821270000000003 5.474516000000001 2.263488 6.269016000000001 2.619338 3.7696870000000002 1.7876280000000002 2.937978 1.7876280000000002 3.612467 2.263488 2.619338 1.7876280000000002 0.7117 12.177980000000002 3.2938270000000003 5.118666000000001 1.944849 4.762816000000001 2.263488 2.582126 12.182178999999998 6.194592 5.118666000000001 3.256616 5.118667 2.619338 4.406966000000001 2.619338 4.088327 2.106267 4.406966000000001 1.7876280000000002 5.830367000000001 2.619338 4.088326 2.263488 1.348979 9.124193000000002 6.389025 6.943505 2.937977 5.4745170000000005 0.67449 6.869082000000001 3.6124680000000002 1.944849 3.2938280000000004 2.937978 2.937977 2.619338 2.937978 3.2566170000000003 3.612467 2.5821270000000003 0.7117 12.376610000000003 2.619338 7.063514000000001 2.937977 1.787627 6.744875 5.437305 2.619338 5.437306000000001 0.993129 6.869082000000001 2.937978 2.937977 3.2938280000000004 2.937978 2.619338 2.937978 3.2566170000000003 3.2566170000000003 4.800026000000001 2.937977 3.931106 1.7876280000000002 2.937977 2.937977 3.612467 2.619338 2.619338 2.937978 3.612467 1.7876280000000002 3.2566150000000005 7.063514000000001 2.619338 2.619338 5.118666000000001 3.612467 5.437306000000001 2.937977 3.9311070000000004 2.5821270000000003 2.937978 2.300699 2.937977 2.619338 4.406966000000001 2.263488 4.444176000000001 2.5821270000000003 5.118667 3.732476 3.931106 1.468989 6.111796 2.937977 2.937978 2.5821270000000003 2.937978 2.619338 3.2566170000000003 3.2938280000000004 3.2938280000000004 1.7876280000000002 4.800026000000001 2.619338 5.830367000000001 2.937977 5.155877 2.263488 3.9311070000000004 2.5821270000000003 2.937978 2.937977 2.937978 2.5821270000000003 4.800026000000001 2.619338 6.269015000000001 3.256616 4.800026000000001 2.300699 3.2938280000000004 2.619338 2.619338 2.937977 3.2566170000000003 3.2566170000000003 2.937978 2.619338 2.937978 3.2566170000000003 3.612467 2.937977 2.937978 2.619338 4.444176000000001 1.7876280000000002 2.619338 2.619338 2.619338 2.937977 4.249745000000001 2.937977 4.800027 3.256616 3.612467 2.937977 3.2566170000000003 2.937977 3.2566170000000003 2.937978 2.937978 2.619338 3.2938280000000004 2.937977 1.03034 10.787612000000001 2.937977 4.125537 2.106267 6.269016000000001 3.372446 6.869082000000001 3.612467 2.937977 2.619338 2.619338 2.937978 2.937978 2.937978 2.619338 5.118666000000001 2.619338 7.063515000000001 2.619338 6.231805000000001 2.619338 2.937978 3.256616 3.2938280000000004 3.2938280000000004 2.619338 2.937978 3.2566170000000003 3.612467 3.2938280000000004 3.2566170000000003 3.256616 2.263488 3.2566170000000003 2.937978 3.5752550000000003 2.143478 3.612467 3.2938280000000004 3.2938280000000004 2.619338 5.950377000000001 2.937977 3.5752560000000004 3.2938280000000004 2.937977 2.937977 2.300699 2.937977 2.619338 3.2566170000000003 3.451048 8.813928000000002 6.550445 2.937978 3.5752560000000004 3.2566170000000003 3.9311070000000004 1.7876280000000002 4.800026000000001 2.619338 2.975188 2.263488 3.2938280000000004 3.2938280000000004 3.2938270000000003 2.975188 3.9683180000000005 3.2566170000000003 5.118667 2.263488 0.0 15.343421000000003 4.994458000000001 6.550443000000001 0.0 8.938138000000002 3.256616 2.937977 2.937978 2.937978 3.5752560000000004 
4.642806 2.6235350000000004 0.35585 0.35585 0.35585 0.0 0.0 0.0 0.0 0.0 0.0 0.0 0.0 0.0 0.0 0.35585 0.0 0.0 0.35585 0.35585 0.0 0.35585 0.0 0.0 0.35585 0.7117 0.35585 0.0 0.35585 0.35585 0.0 0.35585 0.0 0.0 0.35585 0.35585 0.0 0.35585 0.0 0.0 0.0 0.67449 0.0 0.0 0.35585 0.35585 0.0 0.35585 0.35585 0.0 0.35585 0.0 0.35585 0.0 0.35585 0.35585 0.0 0.35585 0.35585 0.0 0.35585 0.0 0.35585 0.0 0.35585 0.0 0.0 0.0 0.67449 0.0 0.35585 0.0 0.35585 0.0 0.0 0.35585 0.0 0.35585 0.35585 0.0 0.35585 0.35585 0.35585 0.0 0.0 0.35585 0.0 0.0 0.0 0.35585 0.35585 0.0 0.35585 0.35585 0.35585 0.0 0.35585 0.35585 0.35585 0.0 0.0 0.35585 0.0 0.35585 0.0 0.35585 0.0 0.0 0.35585 0.35585 0.0 1.03034 0.0 0.67449 0.0 0.0 2.304895 0.35585 0.35585 0.7117 0.0 0.35585 0.0 0.0 0.0 0.0 0.0 0.0 0.35585 0.0 0.67449 0.0 0.0 0.35585 0.35585 0.35585 0.0 0.0 0.0 0.35585 0.0 0.0 0.0 0.7117 0.0 0.35585 0.35585 0.0 0.0 0.35585 0.67449 0.0 0.0 0.0 0.35585 0.0 0.0 0.35585 0.0 0.35585 0.35585 0.35585 0.35585 0.0 0.35585 0.0 0.35585 0.35585 0.0 0.67449 0.35585 0.35585 0.35585 0.0 0.993129 0.0 0.0 0.0 0.0 0.35585 0.35585 0.35585 0.0 0.0 0.35585 0.35585 0.0 0.0 0.0 0.0 0.35585 0.67449 0.35585 0.0 0.0 0.35585 0.0 0.0 0.67449 0.35585 0.0 0.0 0.67449 0.0 1.03034 0.0 0.0 0.0 0.0 0.0 0.0 0.0 0.0 0.0 0.35585 0.0 0.7117 0.0 0.67449 1.89926 1.34898 1.54341 1.03034 2.2179 1.06755 1.54341 1.348979 0.83171 0.993129 0.0 1.348979 0.35585 0.35585 0.35585 1.03034 0.0 0.35585 0.67449 0.7117 0.0 0.7117 0.0 1.348979 1.18756 0.993129 0.35585 1.348979 1.18756 1.348979 0.35585 1.03034 1.18756 0.993129 1.54341 1.34898 3.9311059999999998 6.823495000000001 2.217899 1.348979 0.83171 1.348979 0.35585 1.34898 0.0 0.0 0.35585 0.67449 0.0 0.0 0.0 0.0 0.35585 1.704829 0.83171 1.34898 4.837237000000001 7.373776000000001 0.7117 2.57375 1.06755 2.217899 7.655204000000001 3.6496760000000004 0.35585 1.348979 0.0 0.0 0.0 1.03034 0.35585 1.348979 0.83171 1.348979 0.83171 1.03034 1.506199 2.5365390000000003 0.83171 1.348979 0.0 1.03034 0.0 1.03034 0.0 0.67449 0.0 1.348979 0.83171 1.348979 4.605595 5.437306 2.2179 0.7117 1.54341 1.348979 0.35585 0.35585 0.0 0.35585 0.35585 0.7117 0.0 0.0 1.18756 1.03034 1.348978 2.5365390000000003 0.35585 0.35585 0.0 0.993129 0.35585 1.03034 1.18756 0.67449 1.54341 1.03034 1.862049 0.7117 0.35585 0.67449 0.0 0.35585 0.35585 0.0 0.35585 1.34898 2.2179 0.67449 2.69376 0.7117 0.35585 1.348979 0.35585 0.993129 0.67449 0.993129 0.35585 0.993129 0.0 0.0 0.67449 0.0 0.35585 0.993129 1.89926 1.03034 5.2428740000000005 7.460773000000001 0.83171 1.34898 0.0 1.34898 0.35585 1.34898 0.83171 1.70483 1.89926 1.704829 1.89926 1.34898 1.348979 1.38619 1.06755 1.03034 1.03034 1.348979 1.03034 1.34898 2.57375 1.06755 0.35585 0.67449 1.03034 1.03034 0.35585 0.0 0.0 0.7117 3.169619 1.54341 1.54341 0.993129 0.0 1.824839 0.35585 1.34898 0.0 0.35585 0.35585 1.03034 0.0 1.34898 0.0 1.70483 1.18756 2.41653 0.0 1.03034 0.7117 0.7117 0.7117 1.70483 1.18756 0.993129 0.83171 1.348979 1.18756 1.348979 0.0 0.67449 0.0 1.03034 1.54341 1.348979 1.18756 0.993129 1.89926 1.03034 0.0 0.0 0.0 0.0 0.35585 0.0 0.0 1.03034 3.0496100000000004 1.86205 0.35585 0.7117 0.0 0.0 0.0 0.35585 0.0 0.0 0.35585 0.35585 1.18756 1.348979 3.169619 0.7117 0.0 0.35585 0.0 0.67449 0.0 0.35585 0.0 0.35585 1.18756 0.993129 0.35585 1.70483 1.18756 1.348979 4.887023 5.793156000000001 0.67449 1.03034 0.35585 0.0 0.0 0.0 0.35585 0.35585 0.0 0.35585 0.0 0.0 4.680017 7.373776000000001 1.03034 3.3682490000000005 0.7117 1.5061989999999998 7.262143000000001 3.3310370000000002 0.0 0.67449 0.0 0.0 0.0 0.0 0.0 0.35585 0.35585 0.0 0.0 0.35585 1.54341 1.03034 1.348979 2.5365390000000003 0.67449 0.35585 0.0 0.35585 0.67449 0.7117 0.0 0.0 1.18756 1.03034 1.667618 2.8551790000000006 0.35585 0.35585 0.0 0.35585 0.0 0.35585 0.0 0.0 0.35585 0.35585 0.0 0.35585 0.35585 0.67449 0.35585 0.35585 1.54341 1.03034 1.506199 2.5365390000000003 2.0234680000000003 2.06068 0.0 0.35585 0.35585 0.0 0.35585 0.35585 0.0 1.348979 1.862049 1.03034 2.57375 1.06755 0.35585 0.67449 0.0 0.0 0.35585 0.0 0.35585 0.0 0.35585 0.0 0.35585 0.7117 1.348979 2.180689 1.667618 2.8923890000000005 0.35585 0.35585 0.0 0.0 0.35585 0.0 0.0 0.0 0.35585 0.0 0.7117 0.7117 4.361378000000001 6.8979170000000005 1.03034 2.57375 1.06755 2.37512 4.998656 3.9683160000000006 0.35585 0.0 0.0 0.0 0.0 0.0 0.83171 0.993129 4.568384 6.111795000000001 1.54341 0.7117 0.35585 0.35585 0.0 0.0 0.0 0.35585 0.0 0.0 0.0 0.0 0.7117 0.35585 4.887023 6.111795000000001 0.35585 0.0 0.0 0.35585 0.0 0.35585 0.0 0.35585 0.0 0.67449 0.0 2.3048960000000003 0.35585 0.35585 0.0 0.0 0.67449 0.0 0.0 0.0 0.7117 0.35585 0.0 0.35585 0.35585 0.0 0.0 0.35585 0.35585 0.35585 0.0 0.0 0.0 0.0 0.0 0.67449 0.0 0.0 0.67449 0.67449 0.35585 0.0 0.0 2.41653 1.0303390000000001 0.0 0.35585 0.35585 0.0 0.0 0.35585 0.0 0.0 0.35585 0.0 0.0 0.7117 0.35585 0.0 0.35585 0.35585 0.0 0.0 0.0 0.35585 0.0 0.35585 0.35585 1.18756 0.35585 0.35585 0.0 0.35585 0.35585 2.8179680000000005 0.674489 0.0 0.35585 0.35585 0.0 0.0 0.0 0.35585 0.0 0.35585 0.0 0.35585 0.0 0.35585 0.35585 0.0 0.0 0.35585 0.35585 0.35585 0.35585 0.0 0.35585 0.0 0.0 0.0 0.35585 0.0 0.0 0.35585 0.0 0.35585 0.7117 0.0 0.0 0.35585 1.0303390000000001 0.35585 0.0 0.35585 0.0 0.35585 0.0 0.0 0.0 0.0 0.35585 0.0 0.35585 0.35585 0.35585 0.0 0.0 0.0 0.993129 0.0 0.67449 0.67449 0.35585 0.35585 0.35585 0.7117 0.67449 0.0 0.35585 0.35585 0.35585 0.67449 0.0 0.0 0.0 0.35585 0.0 0.0 0.0 0.0 0.0 0.35585 0.0 0.0 0.0 0.35585 0.0 0.0 0.0 0.35585 0.0 0.35585 0.0 0.0 0.0 0.35585 0.0 0.0 0.0 0.0 0.35585 0.0 0.35585 0.0 0.0 0.0 0.0 0.35585 0.35585 0.0 0.35585 0.0 0.0 0.35585 0.0 0.0 0.0 0.35585 0.67449 0.35585 0.0 0.0 0.35585 0.35585 0.35585 1.348978 2.8923890000000005 0.35585 0.0 0.0 0.35585 0.35585 0.0 0.35585 0.35585 0.35585 0.0 1.5062 1.348979 2.57375 0.7117 2.217899 1.03034 0.83171 1.34898 1.18756 1.34898 0.35585 1.34898 1.18756 1.348979 0.83171 1.34898 2.2179 1.06755 1.506199 0.7117 0.0 1.34898 0.7117 1.34898 0.83171 1.34898 3.3682490000000005 8.892553 2.4993290000000004 2.0234680000000003 2.180689 3.169619 4.361378 3.9683150000000005 1.54341 1.348979 0.0 1.34898 0.7117 1.03034 0.35585 0.35585 1.862049 0.35585 1.54341 1.34898 5.673146000000001 9.761474 2.06068 3.169619 0.7117 2.69376 5.747568000000001 3.6124650000000003 0.35585 1.34898 1.03034 0.993129 0.0 1.34898 1.54341 1.348979 5.673146000000001 10.862033000000002 0.7117 3.0496090000000002 0.7117 3.9311059999999998 12.18218 3.9683160000000006 0.0 0.7117 0.35585 0.0 0.7117 1.824839 0.0 0.67449 0.83171 1.03034 5.354507000000001 10.080113 2.5365390000000003 3.811097 6.467645000000001 1.667618 7.973843000000001 3.9683150000000005 0.35585 1.34898 0.0 0.993129 0.0 0.35585 0.35585 1.03034 0.35585 1.34898 2.9295999999999998 1.06755 5.242873 6.430434000000001 2.25511 1.03034 0.0 0.0 0.0 0.0 0.0 0.0 1.862049 0.7117 1.348978 2.5365390000000003 0.0 0.35585 0.35585 0.0 0.35585 0.0 0.0 0.35585 0.318639 0.35585 2.342108 2.8551780000000004 0.0 0.0 1.18756 1.348979 0.0 1.34898 3.0496100000000004 0.7117 0.0 0.993129 0.0 0.35585 0.7117 1.38619 2.69376 1.06755 1.54341 1.06755 0.0 1.704829 0.7117 1.348979 1.89926 1.03034 0.7117 1.348979 2.693759 0.7117 0.35585 0.7117 0.0 1.348979 0.67449 1.348979 2.693759 0.7117 0.35585 1.34898 2.693759 1.03034 0.35585 1.348979 1.18756 1.34898 0.0 1.34898 0.0 1.34898 2.217899 0.67449 1.54341 0.993129 0.7117 1.70483 0.35585 0.35585 0.67449 0.35585 0.0 0.35585 0.83171 1.348979 1.89926 0.993129 5.561513 6.430434000000001 0.35585 1.34898 0.35585 0.0 0.67449 1.311768 0.35585 0.0 0.35585 0.0 0.7117 1.348979 2.3793190000000006 2.8923890000000005 0.0 0.35585 0.35585 0.0 0.0 0.7117 0.35585 0.35585 0.35585 0.7117 0.0 0.0 0.35585 0.67449 4.887023 5.474516 0.993128 2.180689 0.35585 0.0 0.35585 0.35585 0.0 0.0 0.0 5.2428740000000005 6.149006000000001 0.0 0.35585 2.69376 1.54341 0.0 1.824839 0.35585 1.348979 0.35585 0.993129 0.35585 1.824839 0.35585 1.70483 0.7117 1.348979 0.7117 1.34898 0.35585 0.35585 0.993129 0.35585 0.35585 0.67449 0.35585 1.03034 1.18756 1.348979 0.83171 1.348979 0.35585 3.4552450000000006 0.35585 1.03034 0.0 0.35585 0.35585 0.67449 0.7117 1.34898 0.7117 1.34898 1.18756 1.348979 0.67449 1.34898 1.18756 1.03034 0.35585 1.03034 0.35585 1.70483 0.35585 1.70483 1.89926 1.348979 0.7117 0.35585 0.7117 0.35585 0.0 0.35585 0.35585 0.318639 0.0 0.35585 4.005528000000001 7.373776000000001 0.7117 2.217899 1.06755 0.993128 7.973843000000001 3.6496760000000004 0.35585 0.0 0.0 0.35585 0.0 0.0 0.0 0.0 0.0 0.35585 2.693759 0.7117 0.0 0.35585 0.7117 0.0 0.35585 0.35585 0.0 0.0 1.18756 0.993129 4.042739000000001 6.504857 2.8551790000000006 1.986257 2.4993290000000004 3.455246 11.706318999999999 3.6496760000000004 0.0 0.35585 0.35585 0.35585 0.0 0.35585 0.35585 0.0 0.0 1.824839 1.667618 2.5365390000000003 3.16962 1.06755 0.7117 4.092523000000001 0.35585 0.0 0.35585 0.0 0.35585 0.35585 0.0 0.0 3.0496090000000002 1.06755 2.180688 1.03034 0.35585 1.348979 0.35585 0.35585 0.0 0.0 0.0 0.35585 0.35585 0.35585 1.34898 0.35585 0.0 0.0 0.35585 0.67449 0.0 0.67449 0.67449 0.35585 0.0 0.35585 0.35585 0.35585 0.35585 0.0 0.35585 0.0 0.0 0.35585 1.03034 0.35585 0.67449 0.0 0.0 0.35585 0.67449 0.0 0.0 0.67449 0.67449 0.0 0.0 0.35585 0.7117 0.0 0.0 0.35585 0.35585 0.0 0.35585 0.0 0.67449 0.35585 0.0 0.35585 0.0 0.35585 0.0 0.0 0.35585 0.35585 0.35585 0.35585 0.35585 0.0 0.35585 0.35585 0.0 0.0 0.35585 0.0 0.0 0.0 0.0 0.0 0.0 0.0 0.35585 0.35585 0.35585 0.0 0.0 0.35585 0.0 0.0 0.35585 0.0 0.0 0.0 0.0 0.0 0.35585 0.0 0.35585 0.67449 0.35585 0.0 0.35585 0.35585 0.0 0.35585 0.0 0.35585 0.0 0.35585 0.67449 0.35585 0.0 0.0 0.0 0.0 0.35585 0.0 0.0 0.0 0.35585 0.0 0.35585 0.0 0.0 0.0 0.35585 0.0 0.0 0.35585 0.35585 0.0 0.0 0.35585 0.0 0.35585 0.35585 0.35585 0.0 0.35585 0.35585 0.35585 0.35585 0.7117 0.7117 0.35585 0.0 0.0 0.0 0.0 0.35585 0.0 0.0 0.35585 0.35585 0.0 0.0 0.67449 0.0 0.0 0.35585 0.35585 0.0 0.0 0.35585 0.0 0.35585 0.0 0.0 0.0 0.35585 0.0 0.0 0.35585 0.0 0.0 0.35585 0.7117 0.35585 0.35585 0.67449 0.0 0.0 0.35585 0.35585 0.0 0.0 0.0 0.0 0.35585 0.0 0.0 0.35585 0.0 0.0 0.0 0.0 0.0 0.0 0.67449 0.35585 0.0 0.0 0.35585 0.0 0.0 0.35585 0.0 0.35585 1.18756 0.993129 0.0 0.0 0.0 0.0 0.0 0.35585 0.35585 0.0 0.0 0.0 0.83171 0.993129 0.7117 1.348979 1.89926 0.993129 2.693759 1.03034 1.18756 1.70483 0.0 1.824839 0.7117 1.348979 0.35585 1.34898 4.042738000000001 9.595853 1.06755 1.54341 1.348979 1.18756 1.348979 4.568384 13.493948 3.6496760000000004 2.217899 1.03034 1.54341 1.03034 0.83171 1.03034 0.83171 1.34898 0.83171 1.34898 1.89926 1.03034 1.5062 1.348979 4.998657000000001 13.291142 4.800027 3.0496090000000002 0.7117 1.89926 4.9614460000000005 4.005527 0.7117 1.348979 0.0 0.0 0.35585 0.35585 0.0 0.0 0.7117 1.348979 4.361378000000001 9.794484 0.7117 3.169619 0.7117 3.968318 6.111795000000001 2.217899 1.03034 1.862049 4.642807 4.005527 0.0 0.67449 0.0 0.0 0.35585 0.0 0.0 0.0 2.25511 1.03034 0.637278 2.180689 0.35585 0.35585 0.0 0.35585 0.35585 0.0 0.7117 1.34898 3.9311059999999998 6.149005000000001 0.35585 0.35585 1.54341 1.06755 1.89926 0.7117 0.35585 1.348979 0.0 1.03034 0.35585 1.03034 0.83171 1.348979 1.54341 1.348979 2.53654 1.18756 0.637278 2.180689 2.2179 0.7117 0.0 1.348979 0.35585 0.67449 0.35585 0.0 0.7117 1.824839 1.89926 1.03034 2.57375 0.7117 2.25511 0.993129 0.35585 1.348979 0.35585 1.03034 0.0 1.348979 1.89926 1.03034 2.693759 0.7117 1.89926 1.03034 0.0 0.7117 0.67449 0.35585 0.0 0.0 0.35585 0.67449 0.0 0.0 0.7117 0.7117 0.0 0.35585 1.54341 1.34898 0.35585 0.35585 0.35585 0.35585 2.9421740000000005 0.7117 2.53654 0.7117 0.0 0.35585 0.35585 0.35585 0.0 0.0 0.35585 0.35585 0.0 0.7117 5.317296000000001 8.917185 0.7117 1.506199 2.5365390000000003 3.0496090000000002 5.710357000000001 4.005527 0.0 0.35585 0.67449 0.67449 0.0 0.0 0.0 0.35585 1.54341 1.03034 3.169619 0.7117 2.337909 0.7117 0.0 0.35585 0.0 0.35585 0.35585 0.0 0.0 0.7117 0.35585 0.0 0.35585 0.993129 0.0 0.35585 0.993128 2.5365390000000003 0.35585 0.0 0.35585 0.67449 2.37512 1.03034 0.35585 1.06755 0.7117 0.7117 1.03034 0.7117 0.7117 0.0 1.9862570000000002 9.331199000000002 4.605596 0.0 0.0 0.35585 0.35585 1.70483 1.89926 1.03034 0.35585 0.993129 0.35585 0.318639 0.35585 0.7117 0.35585 0.0 1.89926 0.993129 3.612467 11.656534 8.648334 3.3682490000000005 3.649678 4.088326 0.35585 0.35585 0.0 0.0 0.0 
