-2.0
-2.0
-2.0
-2.0
-2.0
-3.0
-11.0
-20.0
-27.0
-31.0
-35.0
-38.0
-46.0
-58.0
-68.0
-75.0
-80.0
-81.0
-79.0
-78.0
-78.0
-78.0
-79.0
-83.0
-81.0
-80.0
-61.0
-45.0
-31.0
-25.0
-23.0
-20.0
-16.0
-13.0
-10.0
-20.0
-36.0
-56.0
-72.0
-85.0
-91.0
-100.0
-100.0
-99.0
-95.0
-94.0
-97.0
-99.0
-101.0
-101.0
-99.0
-97.0
-99.0
-101.0
-99.0
-98.0
-99.0
-106.0
-112.0
-102.0
-60.0
12.0
109.0
220.0
323.0
384.0
374.0
290.0
179.0
56.0
-59.0
-157.0
-229.0
-265.0
-254.0
-246.0
-182.0
-158.0
-150.0
-158.0
-171.0
-179.0
-180.0
-180.0
-180.0
-184.0
-186.0
-186.0
-183.0
-181.0
-184.0
-188.0
-188.0
-187.0
-182.0
-178.0
-178.0
-181.0
-181.0
-174.0
-170.0
-158.0
-155.0
-150.0
-143.0
-134.0
-125.0
-117.0
-110.0
-104.0
-93.0
-81.0
-70.0
-62.0
-56.0
-50.0
-42.0
-27.0
-13.0
-3.0
7.0
15.0
26.0
36.0
47.0
51.0
60.0
64.0
73.0
79.0
76.0
70.0
60.0
53.0
47.0
33.0
20.0
5.0
-9.0
-22.0
-32.0
-41.0
-48.0
-52.0
-55.0
-54.0
-53.0
-60.0
-72.0
-85.0
-89.0
-94.0
-97.0
-100.0
-104.0
-111.0
-110.0
-111.0
-110.0
-109.0
-105.0
-102.0
-98.0
-94.0
-96.0
-101.0
-108.0
-109.0
-97.0
-64.0
-8.0
75.0
188.0
310.0
400.0
422.0
391.0
310.0
207.0
100.0
-7.0
-118.0
-202.0
-230.0
-213.0
-174.0
-146.0
-143.0
-156.0
-174.0
-180.0
-186.0
-182.0
-183.0
-187.0
-190.0
-195.0
-202.0
-208.0
-213.0
-214.0
-213.0
-211.0
-210.0
-213.0
-218.0
-221.0
-220.0
-220.0
-216.0
-212.0
-206.0
-199.0
-191.0
-183.0
-178.0
-170.0
-156.0
-140.0
-124.0
-112.0
-103.0
-94.0
-80.0
-68.0
-63.0
-43.0
-30.0
-19.0
-6.0
0.0
-3.0
-4.0
-2.0
-1.0
0.0
-2.0
-9.0
-17.0
-22.0
-31.0
-39.0
-44.0
-48.0
-50.0
-51.0
-60.0
-69.0
-78.0
-84.0
-86.0
-91.0
-98.0
-99.0
-105.0
-109.0
-113.0
-115.0
-120.0
-120.0
-120.0
-112.0
-111.0
-112.0
-118.0
-120.0
-121.0
-119.0
-116.0
-119.0
-118.0
-118.0
-120.0
-119.0
-123.0
-126.0
-123.0
-117.0
-112.0
-114.0
-120.0
-126.0
-123.0
-121.0
-117.0
-115.0
-112.0
-110.0
-110.0
-111.0
-110.0
-110.0
-104.0
-92.0
-79.0
-69.0
-65.0
-64.0
-63.0
-59.0
-58.0
-57.0
-60.0
-71.0
-86.0
-102.0
-119.0
-132.0
-139.0
-137.0
-132.0
-126.0
-126.0
-129.0
-133.0
-135.0
-135.0
-133.0
-132.0
-132.0
-134.0
-133.0
-136.0
-144.0
-148.0
-147.0
-86.0
-9.0
96.0
222.0
333.0
388.0
369.0
276.0
155.0
29.0
-90.0
-191.0
-253.0
-262.0
-232.0
-197.0
-176.0
-174.0
-185.0
-197.0
-204.0
-205.0
-204.0
-207.0
-208.0
-214.0
-216.0
-217.0
-215.0
-217.0
-222.0
-225.0
-225.0
-223.0
-216.0
-216.0
-213.0
-210.0
-206.0
-203.0
-198.0
-197.0
-191.0
-182.0
-173.0
-164.0
-163.0
-159.0
-152.0
-150.0
-127.0
-117.0
-107.0
-99.0
-87.0
-77.0
-69.0
-61.0
-54.0
-41.0
-28.0
-16.0
-6.0
0.0
4.0
11.0
21.0
27.0
36.0
37.0
37.0
42.0
43.0
41.0
39.0
33.0
31.0
30.0
22.0
16.0
4.0
-7.0
-14.0
-20.0
-27.0
-33.0
-42.0
-51.0
-55.0
-62.0
-70.0
-73.0
-75.0
-71.0
-69.0
-67.0
-73.0
-78.0
-79.0
-78.0
-66.0
-58.0
-49.0
-44.0
-40.0
-34.0
-31.0
-30.0
-29.0
-28.0
-31.0
-42.0
-59.0
-81.0
-97.0
-108.0
-112.0
-113.0
-113.0
-114.0
-114.0
-116.0
-116.0
-119.0
-121.0
-119.0
-115.0
-112.0
-109.0
-111.0
-115.0
-119.0
-123.0
-125.0
-119.0
-88.0
-29.0
51.0
149.0
256.0
350.0
376.0
331.0
227.0
98.0
-28.0
-133.0
-212.0
-254.0
-262.0
-227.0
-190.0
-167.0
-163.0
-170.0
-181.0
-190.0
-194.0
-197.0
-196.0
-194.0
-193.0
-195.0
-200.0
-208.0
-212.0
-211.0
-212.0
-213.0
-211.0
-212.0
-210.0
-208.0
-210.0
-211.0
-210.0
-204.0
-197.0
-187.0
-182.0
-178.0
-174.0
-163.0
-150.0
-137.0
-128.0
-119.0
-109.0
-100.0
-86.0
-74.0
-63.0
-50.0
-38.0
-23.0
-10.0
-2.0
4.0
10.0
12.0
27.0
36.0
42.0
41.0
41.0
38.0
39.0
38.0
35.0
31.0
28.0
23.0
20.0
14.0
4.0
-5.0
-12.0
-15.0
-19.0
-22.0
-30.0
-40.0
-49.0
-54.0
-55.0
-66.0
-72.0
-76.0
-79.0
-82.0
-85.0
-89.0
-95.0
-97.0
-99.0
-96.0
-90.0
-87.0
-82.0
-73.0
-64.0
-56.0
-49.0
-45.0
-40.0
-38.0
-37.0
-39.0
-48.0
-52.0
-80.0
-93.0
-103.0
-112.0
-119.0
-125.0
-126.0
-125.0
-121.0
-118.0
-117.0
-119.0
-122.0
-123.0
-121.0
-119.0
-119.0
-118.0
-116.0
-114.0
-114.0
-119.0
-121.0
-103.0
-92.0
23.0
129.0
244.0
348.0
406.0
390.0
311.0
188.0
57.0
-55.0
-144.0
-204.0
-233.0
-229.0
-203.0
-173.0
-150.0
-145.0
-147.0
-155.0
-160.0
-168.0
-173.0
-173.0
-172.0
-171.0
-171.0
-172.0
-172.0
-177.0
-176.0
-178.0
-181.0
-182.0
-183.0
-179.0
-175.0
-172.0
-174.0
-173.0
-169.0
-162.0
-153.0
-144.0
-139.0
-132.0
-124.0
-116.0
-107.0
-104.0
-88.0
-77.0
-67.0
-56.0
-45.0
-38.0
-30.0
-21.0
-8.0
9.0
22.0
32.0
38.0
42.0
50.0
56.0
59.0
61.0
62.0
65.0
68.0
65.0
61.0
51.0
48.0
43.0
45.0
42.0
34.0
21.0
11.0
5.0
-3.0
-8.0
-12.0
-15.0
-24.0
-30.0
-41.0
-53.0
-63.0
-71.0
-74.0
-76.0
-77.0
-85.0
-92.0
-92.0
-95.0
-93.0
-93.0
-93.0
-94.0
-91.0
-85.0
-74.0
-70.0
-64.0
-56.0
-45.0
-32.0
-23.0
-20.0
-22.0
-27.0
-36.0
-47.0
-64.0
-81.0
-98.0
-108.0
-113.0
-114.0
-112.0
-113.0
-114.0
-114.0
-111.0
-110.0
-113.0
-117.0
-121.0
-118.0
-113.0
-111.0
-112.0
-118.0
-123.0
-124.0
-105.0
-60.0
12.0
96.0
196.0
298.0
365.0
360.0
280.0
148.0
104.0
-110.0
-203.0
-271.0
-298.0
-281.0
-242.0
-202.0
-184.0
-181.0
-184.0
-188.0
-194.0
-198.0
-202.0
-203.0
-203.0
-204.0
-204.0
-205.0
-205.0
-203.0
-203.0
-204.0
-207.0
-209.0
-203.0
-196.0
-192.0
-188.0
-187.0
-184.0
-177.0
-168.0
-159.0
-153.0
-145.0
-138.0
-128.0
-121.0
-117.0
-112.0
-101.0
-87.0
-73.0
-61.0
-54.0
-46.0
-36.0
-26.0
-23.0
-5.0
2.0
6.0
9.0
14.0
18.0
19.0
19.0
19.0
22.0
22.0
19.0
9.0
0.0
-9.0
-16.0
-20.0
-25.0
-32.0
-41.0
-52.0
-57.0
-62.0
-72.0
-75.0
-85.0
-88.0
-90.0
-96.0
-105.0
-114.0
-119.0
-120.0
-116.0
-116.0
-114.0
-114.0
-115.0
-114.0
-112.0
-110.0
-105.0
-96.0
-82.0
-69.0
-64.0
-60.0
-62.0
-59.0
-57.0
-50.0
-52.0
-63.0
-80.0
-99.0
-112.0
-124.0
-133.0
-134.0
-135.0
-132.0
-132.0
-132.0
-139.0
-140.0
-142.0
-136.0
-134.0
-132.0
-134.0
-135.0
-136.0
-137.0
-145.0
-147.0
-145.0
-114.0
-48.0
42.0
145.0
247.0
331.0
368.0
347.0
256.0
136.0
-2.0
-124.0
-217.0
-279.0
-299.0
-273.0
-236.0
-203.0
-188.0
-190.0
-201.0
-212.0
-218.0
-219.0
-215.0
-215.0
-214.0
-221.0
-225.0
-227.0
-228.0
-225.0
-226.0
-229.0
-230.0
-229.0
-227.0
-228.0
-232.0
-229.0
-225.0
-220.0
-212.0
-208.0
-205.0
-201.0
-195.0
-186.0
-182.0
-165.0
-155.0
-146.0
-134.0
-128.0
-119.0
-111.0
-100.0
-83.0
-68.0
-55.0
-44.0
-36.0
-25.0
-15.0
-5.0
3.0
7.0
10.0
16.0
20.0
23.0
20.0
15.0
13.0
9.0
8.0
9.0
2.0
-7.0
-17.0
-24.0
-30.0
-36.0
-41.0
-50.0
-57.0
-65.0
-73.0
-81.0
-91.0
-97.0
-101.0
-102.0
-102.0
-104.0
-108.0
-113.0
-112.0
-113.0
-108.0
-105.0
-97.0
-85.0
-76.0
-68.0
-64.0
-61.0
-55.0
-46.0
-44.0
-49.0
-64.0
-83.0
-101.0
-119.0
-129.0
-141.0
-141.0
-142.0
-141.0
-140.0
-144.0
-148.0
-150.0
-147.0
-140.0
-136.0
-137.0
-142.0
-142.0
-142.0
-148.0
-150.0
-156.0
-152.0
-120.0
-62.0
25.0
137.0
256.0
345.0
353.0
276.0
151.0
20.0
-94.0
-184.0
-247.0
-263.0
-271.0
-236.0
-199.0
-184.0
-188.0
-201.0
-216.0
-219.0
-215.0
-213.0
-211.0
-216.0
-220.0
-225.0
-227.0
-229.0
-232.0
-235.0
-232.0
-230.0
-227.0
-230.0
-234.0
-235.0
-235.0
-224.0
-218.0
-214.0
-210.0
-205.0
-197.0
-188.0
-178.0
-168.0
-150.0
-135.0
-121.0
-111.0
-102.0
-91.0
-78.0
-63.0
-52.0
-41.0
-24.0
-11.0
0.0
4.0
6.0
7.0
14.0
21.0
23.0
19.0
12.0
6.0
5.0
-1.0
-6.0
-11.0
-17.0
-20.0
-26.0
-34.0
-46.0
-55.0
-61.0
-64.0
-69.0
-78.0
-85.0
-90.0
-96.0
-100.0
-103.0
-111.0
-115.0
-116.0
-115.0
-118.0
-119.0
-118.0
-111.0
-97.0
-85.0
-75.0
-69.0
-62.0
-54.0
-49.0
-49.0
-51.0
-58.0
-70.0
-85.0
-101.0
-114.0
-125.0
-128.0
-128.0
-124.0
-124.0
-121.0
-122.0
-125.0
-126.0
-130.0
-131.0
-130.0
-125.0
-116.0
-114.0
-116.0
-123.0
-131.0
-135.0
-125.0
-90.0
-26.0
62.0
168.0
279.0
356.0
343.0
325.0
128.0
2.0
-99.0
-177.0
-233.0
-265.0
-266.0
-235.0
-195.0
-174.0
-170.0
-179.0
-190.0
-196.0
-198.0
-196.0
-198.0
-202.0
-201.0
-199.0
-199.0
-205.0
-209.0
-208.0
-209.0
-201.0
-200.0
-204.0
-200.0
-198.0
-197.0
-190.0
-188.0
-182.0
-175.0
-169.0
-158.0
-152.0
-143.0
-136.0
-127.0
-110.0
-101.0
-87.0
-77.0
-70.0
-63.0
-49.0
-41.0
-37.0
-22.0
-8.0
4.0
17.0
22.0
25.0
28.0
30.0
35.0
39.0
41.0
39.0
36.0
32.0
29.0
19.0
12.0
6.0
2.0
3.0
-2.0
-11.0
-23.0
-34.0
-38.0
-47.0
-55.0
-61.0
-69.0
-78.0
-83.0
-91.0
-97.0
-104.0
-107.0
-108.0
-106.0
-109.0
-116.0
-120.0
-120.0
-117.0
-111.0
-105.0
-97.0
-87.0
-76.0
-68.0
-63.0
-60.0
-45.0
-37.0
-34.0
-44.0
-63.0
-86.0
-105.0
-117.0
-125.0
-129.0
-131.0
-132.0
-127.0
-127.0
-131.0
-136.0
-135.0
-129.0
-126.0
-125.0
-124.0
-130.0
-130.0
-134.0
-135.0
-141.0
-141.0
-109.0
-42.0
51.0
163.0
274.0
354.0
366.0
288.0
165.0
30.0
-84.0
-173.0
-240.0
-285.0
-288.0
-263.0
-225.0
-197.0
-186.0
-190.0
-200.0
-210.0
-213.0
-212.0
-210.0
-208.0
-207.0
-212.0
-217.0
-218.0
-220.0
-219.0
-219.0
-217.0
-213.0
-210.0
-209.0
-210.0
-212.0
-208.0
-200.0
-194.0
-188.0
-184.0
-182.0
-176.0
-167.0
-164.0
-148.0
-139.0
-128.0
-117.0
-105.0
-96.0
-89.0
-82.0
-73.0
-62.0
-48.0
-40.0
-31.0
-23.0
-15.0
-7.0
0.0
6.0
10.0
13.0
14.0
17.0
12.0
7.0
4.0
-3.0
-3.0
-4.0
-11.0
-23.0
-32.0
-42.0
-45.0
-53.0
-59.0
-68.0
-73.0
-78.0
-86.0
-95.0
-106.0
-106.0
-109.0
-111.0
-115.0
-120.0
-124.0
-127.0
-123.0
-121.0
-111.0
-110.0
-107.0
-100.0
-91.0
-86.0
-84.0
-80.0
-72.0
-63.0
-51.0
-44.0
-47.0
-55.0
-71.0
-90.0
-104.0
-116.0
-127.0
-135.0
-138.0
-139.0
-137.0
-137.0
-138.0
-143.0
-143.0
-138.0
-138.0
-136.0
-138.0
-144.0
-146.0
-147.0
-143.0
-142.0
-146.0
-150.0
-142.0
-108.0
-44.0
48.0
161.0
280.0
369.0
385.0
316.0
195.0
54.0
10.0
-181.0
-256.0
-289.0
-281.0
-248.0
-210.0
-191.0
-190.0
-199.0
-211.0
-215.0
-214.0
-212.0
-215.0
-221.0
-224.0
-225.0
-223.0
-221.0
-223.0
-227.0
-228.0
-229.0
-230.0
-232.0
-233.0
-228.0
-222.0
-215.0
-212.0
-211.0
-209.0
-205.0
-193.0
-183.0
-174.0
-168.0
-162.0
-153.0
-141.0
-131.0
-118.0
-105.0
-95.0
-78.0
-64.0
-53.0
-47.0
-39.0
-34.0
-12.0
0.0
7.0
11.0
14.0
17.0
19.0
17.0
15.0
14.0
14.0
12.0
0.0
-8.0
-16.0
-22.0
-26.0
-31.0
-39.0
-49.0
-58.0
-61.0
-69.0
-79.0
-82.0
-95.0
-95.0
-98.0
-100.0
-106.0
-111.0
-114.0
-114.0
-113.0
-114.0
-108.0
-101.0
-90.0
-82.0
-76.0
-74.0
-68.0
-59.0
-50.0
-48.0
-54.0
-68.0
-82.0
-97.0
-102.0
-130.0
-139.0
-143.0
-142.0
-142.0
-146.0
-147.0
-147.0
-147.0
-143.0
-140.0
-142.0
-146.0
-144.0
-147.0
-146.0
-150.0
-152.0
-154.0
-153.0
-138.0
-103.0
-48.0
39.0
69.0
266.0
352.0
355.0
274.0
143.0
-2.0
-128.0
-224.0
-283.0
-292.0
-267.0
-225.0
-191.0
-182.0
-194.0
-209.0
-215.0
-216.0
-213.0
-212.0
-215.0
-215.0
-218.0
-218.0
-221.0
-225.0
-227.0
-225.0
-223.0
-221.0
-223.0
-225.0
-220.0
-213.0
-203.0
-198.0
-193.0
-189.0
-180.0
-171.0
-162.0
-150.0
-139.0
-124.0
-110.0
-97.0
-88.0
-82.0
-75.0
-72.0
-48.0
-35.0
-24.0
-15.0
-2.0
13.0
23.0
28.0
29.0
31.0
36.0
44.0
48.0
45.0
38.0
32.0
29.0
28.0
21.0
15.0
8.0
0.0
-3.0
-8.0
-12.0
-25.0
-34.0
-34.0
-40.0
-49.0
-59.0
-73.0
-81.0
-83.0
-85.0
-88.0
-94.0
-104.0
-108.0
-113.0
-114.0
-114.0
-116.0
-115.0
-116.0
-111.0
-107.0
-103.0
-96.0
-93.0
-74.0
-63.0
-55.0
-51.0
-49.0
-48.0
-51.0
-57.0
-66.0
-81.0
-99.0
-110.0
-118.0
-121.0
-123.0
-126.0
-130.0
-131.0
-125.0
-123.0
-126.0
-127.0
-130.0
-131.0
-130.0
-131.0
-129.0
-128.0
-127.0
-132.0
-136.0
-141.0
-122.0
-78.0
-1.0
98.0
212.0
317.0
365.0
324.0
220.0
78.0
-54.0
-157.0
-229.0
-276.0
-293.0
-279.0
-247.0
-236.0
-193.0
-183.0
-185.0
-192.0
-200.0
-205.0
-208.0
-208.0
-208.0
-208.0
-210.0
-211.0
-210.0
-207.0
-208.0
-212.0
-213.0
-215.0
-214.0
-208.0
-202.0
-198.0
-197.0
-195.0
-193.0
-182.0
-174.0
-165.0
-159.0
-152.0
-146.0
-137.0
-124.0
-117.0
-107.0
-97.0
-84.0
-73.0
-66.0
-58.0
-49.0
-36.0
-22.0
-12.0
-4.0
1.0
5.0
14.0
16.0
17.0
21.0
19.0
21.0
22.0
19.0
8.0
-4.0
-10.0
-17.0
-23.0
-31.0
-35.0
-41.0
-45.0
-52.0
-64.0
-72.0
-79.0
-82.0
-85.0
-92.0
-103.0
-112.0
-116.0
-115.0
-119.0
-120.0
-121.0
-123.0
-122.0
-120.0
-121.0
-120.0
-117.0
-104.0
-90.0
-79.0
-73.0
-72.0
-69.0
-66.0
-60.0
-54.0
-57.0
-65.0
-77.0
-92.0
-108.0
-123.0
-128.0
-141.0
-141.0
-139.0
-136.0
-138.0
-142.0
-143.0
-144.0
-143.0
-138.0
-138.0
-139.0
-139.0
-142.0
-141.0
-143.0
-147.0
-153.0
-154.0
-140.0
-99.0
-31.0
59.0
170.0
205.0
358.0
382.0
331.0
228.0
101.0
-27.0
-133.0
-221.0
-284.0
-301.0
-283.0
-245.0
-209.0
-192.0
-197.0
-210.0
-221.0
-225.0
-225.0
-221.0
-222.0
-228.0
-233.0
-236.0
-236.0
-234.0
-233.0
-235.0
-237.0
-238.0
-239.0
-239.0
-239.0
-240.0
-238.0
-232.0
-225.0
-223.0
-220.0
-221.0
-217.0
-208.0
-199.0
-191.0
-183.0
-174.0
-166.0
-156.0
-146.0
-143.0
-130.0
-121.0
-109.0
-98.0
-81.0
-72.0
-64.0
-56.0
-46.0
-32.0
-22.0
-14.0
-11.0
-8.0
-6.0
-3.0
-3.0
-2.0
-3.0
-6.0
-8.0
-12.0
-22.0
-30.0
-31.0
-45.0
-44.0
-45.0
-51.0
-63.0
-72.0
-80.0
-86.0
-91.0
-99.0
-107.0
-111.0
-114.0
-118.0
-121.0
-128.0
-134.0
-135.0
-132.0
-129.0
-129.0
-129.0
-132.0
-122.0
-120.0
-100.0
-92.0
-87.0
-84.0
-80.0
-72.0
-68.0
-71.0
-79.0
-91.0
-102.0
-113.0
-125.0
-138.0
-154.0
-163.0
-161.0
-156.0
-152.0
-151.0
-154.0
-157.0
-155.0
-155.0
-156.0
-154.0
-155.0
-155.0
-153.0
-149.0
-153.0
-161.0
-167.0
-162.0
-133.0
-82.0
-11.0
79.0
181.0
282.0
348.0
340.0
266.0
148.0
18.0
-102.0
-204.0
-273.0
-299.0
-302.0
-248.0
-209.0
-190.0
-192.0
-206.0
-217.0
-227.0
-226.0
-226.0
-226.0
-228.0
-229.0
-229.0
-232.0
-236.0
-242.0
-244.0
-240.0
-239.0
-237.0
-236.0
-238.0
-237.0
-234.0
-231.0
-225.0
-218.0
-208.0
-196.0
-187.0
-180.0
-173.0
-165.0
-153.0
-135.0
-121.0
-106.0
-94.0
-79.0
-68.0
-54.0
-47.0
-39.0
-25.0
-11.0
0.0
7.0
12.0
15.0
17.0
19.0
19.0
19.0
17.0
14.0
9.0
4.0
-8.0
-12.0
-18.0
-19.0
-25.0
-31.0
-38.0
-43.0
-50.0
-55.0
-64.0
-75.0
-83.0
-85.0
-90.0
-96.0
-105.0
-108.0
-113.0
-111.0
-108.0
-105.0
-108.0
-108.0
-104.0
-95.0
-84.0
-74.0
-65.0
-61.0
-53.0
-47.0
-44.0
-44.0
-50.0
-56.0
-66.0
-81.0
-98.0
-114.0
-124.0
-124.0
-122.0
-119.0
-120.0
-126.0
-126.0
-123.0
-122.0
-122.0
-125.0
-122.0
-123.0
-121.0
-121.0
-127.0
-134.0
-131.0
-114.0
-68.0
-1.0
87.0
192.0
294.0
357.0
345.0
248.0
211.0
-13.0
-121.0
-198.0
-249.0
-276.0
-265.0
-231.0
-197.0
-177.0
-178.0
-186.0
-193.0
-197.0
-200.0
-202.0
-205.0
-208.0
-205.0
-205.0
-208.0
-210.0
-214.0
-213.0
-211.0
-212.0
-211.0
-210.0
-205.0
-196.0
-190.0
-188.0
-187.0
-184.0
-176.0
-166.0
-160.0
-153.0
-145.0
-135.0
-124.0
-111.0
-102.0
-94.0
-85.0
-71.0
-57.0
-42.0
-33.0
-28.0
-26.0
-10.0
0.0
7.0
14.0
21.0
26.0
30.0
31.0
25.0
20.0
17.0
14.0
16.0
14.0
7.0
-1.0
-12.0
-18.0
-22.0
-26.0
-33.0
-42.0
-49.0
-56.0
-58.0
-72.0
-79.0
-88.0
-89.0
-98.0
-106.0
-116.0
-122.0
-123.0
-124.0
-123.0
-125.0
-127.0
-130.0
-134.0
-136.0
-132.0
-121.0
-108.0
-93.0
-83.0
-80.0
-75.0
-74.0
-73.0
-59.0
-55.0
-56.0
-66.0
-81.0
-100.0
-114.0
-126.0
-133.0
-140.0
-142.0
-140.0
-139.0
-143.0
-141.0
-142.0
-144.0
-144.0
-141.0
-137.0
-138.0
-137.0
-140.0
-140.0
-140.0
-150.0
-156.0
-153.0
-125.0
-65.0
25.0
133.0
250.0
347.0
378.0
331.0
228.0
98.0
-33.0
-150.0
-245.0
-296.0
-304.0
-269.0
-229.0
-201.0
-191.0
-198.0
-211.0
-216.0
-222.0
-217.0
-215.0
-218.0
-224.0
-229.0
-231.0
-231.0
-232.0
-234.0
-231.0
-223.0
-218.0
-218.0
-219.0
-220.0
-216.0
-210.0
-203.0
-195.0
-190.0
-182.0
-174.0
-165.0
-163.0
-154.0
-143.0
-130.0
-117.0
-104.0
-97.0
-87.0
-76.0
-63.0
-53.0
-48.0
-36.0
-26.0
-19.0
-13.0
-11.0
-6.0
-2.0
4.0
9.0
8.0
1.0
-7.0
-11.0
-12.0
-19.0
-27.0
-31.0
-39.0
-42.0
-49.0
-60.0
-71.0
-77.0
-83.0
-87.0
-93.0
-101.0
-110.0
-118.0
-125.0
-128.0
-129.0
-129.0
-131.0
-129.0
-128.0
-129.0
-131.0
-132.0
-124.0
-112.0
-99.0
-89.0
-84.0
-81.0
-75.0
-71.0
-69.0
-68.0
-73.0
-84.0
-97.0
-112.0
-129.0
-142.0
-151.0
-152.0
-146.0
-146.0
-150.0
-153.0
-155.0
-156.0
-155.0
-158.0
-159.0
-153.0
-150.0
-146.0
-151.0
-161.0
-169.0
-166.0
-139.0
-87.0
-11.0
91.0
204.0
306.0
366.0
343.0
264.0
155.0
38.0
-77.0
-180.0
-262.0
-302.0
-307.0
-256.0
-218.0
-198.0
-201.0
-217.0
-227.0
-231.0
-229.0
-229.0
-230.0
-233.0
-235.0
-235.0
-236.0
-241.0
-247.0
-250.0
-249.0
-245.0
-243.0
-241.0
-243.0
-244.0
-239.0
-237.0
-234.0
-230.0
-225.0
-215.0
-206.0
-201.0
-196.0
-188.0
-179.0
-164.0
-148.0
-138.0
-129.0
-120.0
-105.0
-92.0
-79.0
-66.0
-55.0
-40.0
-28.0
-18.0
-14.0
-13.0
-12.0
-2.0
5.0
7.0
8.0
5.0
0.0
-3.0
-11.0
-16.0
-25.0
-29.0
-34.0
-34.0
-41.0
-51.0
-62.0
-69.0
-72.0
-80.0
-87.0
-95.0
-101.0
-105.0
-110.0
-112.0
-120.0
-125.0
-129.0
-128.0
-125.0
-129.0
-132.0
-136.0
-134.0
-119.0
-107.0
-96.0
-92.0
-89.0
-86.0
-79.0
-74.0
-71.0
-71.0
-77.0
-85.0
-97.0
-113.0
-132.0
-139.0
-157.0
-159.0
-153.0
-149.0
-153.0
-155.0
-158.0
-157.0
-156.0
-156.0
-156.0
-153.0
-152.0
-149.0
-151.0
-158.0
-167.0
-173.0
-164.0
-137.0
-89.0
-21.0
73.0
187.0
226.0
360.0
346.0
259.0
135.0
4.0
-104.0
-188.0
-248.0
-282.0
-279.0
-249.0
-210.0
-191.0
-194.0
-209.0
-219.0
-220.0
-219.0
-218.0
-220.0
-223.0
-224.0
-224.0
-225.0
-226.0
-231.0
-232.0
-228.0
-226.0
-225.0
-227.0
-231.0
-229.0
-222.0
-213.0
-205.0
-201.0
-195.0
-189.0
-179.0
-170.0
-164.0
-155.0
-145.0
-130.0
-115.0
-101.0
-93.0
-88.0
-85.0
-68.0
-54.0
-41.0
-30.0
-19.0
-5.0
7.0
14.0
16.0
22.0
27.0
32.0
36.0
38.0
36.0
31.0
25.0
23.0
21.0
19.0
13.0
5.0
-3.0
-9.0
-11.0
-22.0
-27.0
-32.0
-39.0
-46.0
-50.0
-59.0
-70.0
-80.0
-86.0
-92.0
-97.0
-102.0
-112.0
-116.0
-118.0
-120.0
-122.0
-127.0
-131.0
-135.0
-133.0
-127.0
-120.0
-119.0
-106.0
-96.0
-86.0
-74.0
-67.0
-64.0
-62.0
-60.0
-59.0
-61.0
-72.0
-89.0
-110.0
-127.0
-135.0
-141.0
-141.0
-144.0
-144.0
-141.0
-141.0
-138.0
-143.0
-143.0
-143.0
-145.0
-141.0
-137.0
-136.0
-141.0
-143.0
-147.0
-152.0
-155.0
-152.0
-131.0
-80.0
-5.0
95.0
205.0
305.0
354.0
328.0
235.0
116.0
-8.0
-110.0
-184.0
-243.0
-259.0
-295.0
-275.0
-240.0
-213.0
-197.0
-195.0
-201.0
-213.0
-218.0
-220.0
-218.0
-214.0
-215.0
-219.0
-224.0
-228.0
-230.0
-229.0
-226.0
-226.0
-225.0
-225.0
-222.0
-224.0
-222.0
-220.0
-216.0
-211.0
-202.0
-193.0
-191.0
-185.0
-179.0
-170.0
-158.0
-149.0
-142.0
-134.0
-123.0
-108.0
-99.0
-91.0
-86.0
-74.0
-62.0
-47.0
-36.0
-28.0
-24.0
-22.0
-7.0
1.0
7.0
7.0
9.0
11.0
10.0
12.0
9.0
7.0
5.0
0.0
-2.0
-8.0
-13.0
-22.0
-32.0
-37.0
-40.0
-42.0
-47.0
-56.0
-68.0
-78.0
-81.0
-87.0
-93.0
-99.0
-107.0
-111.0
-113.0
-114.0
-120.0
-127.0
-129.0
-129.0
-124.0
-119.0
-118.0
-117.0
-112.0
-103.0
-92.0
-81.0
-73.0
-72.0
-66.0
-62.0
-59.0
-60.0
-75.0
-88.0
-102.0
-115.0
-126.0
-139.0
-150.0
-154.0
-156.0
-151.0
-149.0
-147.0
-148.0
-149.0
-151.0
-150.0
-152.0
-151.0
-149.0
-148.0
-147.0
-146.0
-154.0
-162.0
-165.0
-132.0
-76.0
5.0
101.0
208.0
308.0
371.0
356.0
273.0
143.0
5.0
-117.0
-212.0
-273.0
-288.0
-268.0
-233.0
-202.0
-189.0
-194.0
-206.0
-214.0
-218.0
-217.0
-216.0
-220.0
-223.0
-223.0
-223.0
-222.0
-228.0
-232.0
-235.0
-236.0
-235.0
-233.0
-231.0
-229.0
-227.0
-223.0
-220.0
-221.0
-217.0
-210.0
-202.0
-190.0
-179.0
-174.0
-165.0
-162.0
-142.0
-130.0
-118.0
-107.0
-99.0
-91.0
-73.0
-59.0
-46.0
-35.0
-25.0
-10.0
1.0
8.0
8.0
8.0
15.0
20.0
24.0
26.0
24.0
21.0
14.0
11.0
10.0
-2.0
-7.0
-12.0
-11.0
-15.0
-25.0
-34.0
-46.0
-52.0
-59.0
-63.0
-69.0
-76.0
-85.0
-89.0
-93.0
-96.0
-99.0
-105.0
-104.0
-106.0
-107.0
-113.0
-115.0
-116.0
-107.0
-94.0
-78.0
-68.0
-65.0
-63.0
-62.0
-59.0
-58.0
-59.0
-66.0
-76.0
-91.0
-108.0
-125.0
-140.0
-145.0
-144.0
-139.0
-140.0
-137.0
-137.0
-136.0
-137.0
-136.0
-138.0
-138.0
-139.0
-133.0
-130.0
-132.0
-138.0
-145.0
-142.0
-114.0
-64.0
9.0
92.0
189.0
288.0
355.0
334.0
239.0
105.0
-27.0
-134.0
-209.0
-256.0
-274.0
-276.0
-234.0
-200.0
-178.0
-174.0
-184.0
-195.0
-200.0
-204.0
-206.0
-208.0
-211.0
-209.0
-208.0
-209.0
-212.0
-219.0
-222.0
-221.0
-216.0
-213.0
-214.0
-214.0
-213.0
-210.0
-208.0
-200.0
-197.0
-194.0
-190.0
-179.0
-170.0
-160.0
-152.0
-145.0
-133.0
-120.0
-109.0
-99.0
-93.0
-87.0
-78.0
-64.0
-51.0
-38.0
-24.0
-16.0
-8.0
-1.0
5.0
8.0
14.0
18.0
23.0
24.0
26.0
26.0
21.0
18.0
15.0
13.0
13.0
8.0
2.0
-7.0
-17.0
-24.0
-31.0
-36.0
-44.0
-53.0
-60.0
-64.0
-74.0
-84.0
-89.0
-104.0
-107.0
-110.0
-114.0
-119.0
-128.0
-132.0
-132.0
-133.0
-135.0
-139.0
-136.0
-132.0
-128.0
-121.0
-112.0
-103.0
-88.0
-79.0
-70.0
-68.0
-67.0
-68.0
-69.0
-71.0
-89.0
-109.0
-129.0
-138.0
-141.0
-140.0
-139.0
-139.0
-143.0
-144.0
-147.0
-148.0
-149.0
-148.0
-148.0
-145.0
-143.0
-143.0
-143.0
-142.0
-142.0
-146.0
-153.0
-145.0
-140.0
-46.0
52.0
171.0
286.0
363.0
364.0
289.0
157.0
10.0
-124.0
-230.0
-291.0
-305.0
-283.0
-247.0
-220.0
-207.0
-204.0
-208.0
-213.0
-220.0
-222.0
-224.0
-222.0
-223.0
-225.0
-228.0
-230.0
-228.0
-227.0
-227.0
-229.0
-228.0
-229.0
-222.0
-217.0
-215.0
-210.0
-209.0
-203.0
-195.0
-190.0
-183.0
-178.0
-166.0
-150.0
-141.0
-134.0
-126.0
-123.0
-105.0
-92.0
-84.0
-73.0
-62.0
-50.0
-39.0
-33.0
-29.0
-18.0
-7.0
3.0
8.0
8.0
6.0
3.0
3.0
4.0
3.0
-1.0
-5.0
-7.0
-13.0
-24.0
-28.0
-42.0
-51.0
-54.0
-58.0
-68.0
-80.0
-89.0
-96.0
-100.0
-109.0
-113.0
-115.0
-116.0
-118.0
-118.0
-124.0
-129.0
-130.0
-131.0
-126.0
-121.0
-119.0
-117.0
-108.0
-104.0
-85.0
-78.0
-73.0
-68.0
-61.0
-61.0
-68.0
-83.0
-101.0
-118.0
-129.0
-135.0
-144.0
-150.0
-154.0
-154.0
-156.0
-155.0
-157.0
-158.0
-154.0
-150.0
-150.0
-154.0
-156.0
-161.0
-161.0
-159.0
-158.0
-161.0
-162.0
-142.0
-89.0
-14.0
81.0
185.0
289.0
356.0
353.0
269.0
140.0
-4.0
-133.0
-229.0
-288.0
-305.0
-285.0
-245.0
-212.0
-204.0
-202.0
-212.0
-220.0
-224.0
-221.0
-220.0
-219.0
-225.0
-233.0
-238.0
-238.0
-235.0
-233.0
-234.0
-241.0
-242.0
-244.0
-243.0
-239.0
-240.0
-237.0
-233.0
-229.0
-226.0
-225.0
-222.0
-219.0
-207.0
-196.0
-187.0
-180.0
-173.0
-164.0
-153.0
-141.0
-130.0
-122.0
-110.0
-98.0
-83.0
-70.0
-60.0
-47.0
-36.0
-24.0
-11.0
-1.0
3.0
6.0
7.0
13.0
15.0
15.0
14.0
10.0
8.0
5.0
1.0
-5.0
-13.0
-19.0
-24.0
-27.0
-34.0
-45.0
-56.0
-64.0
-69.0
-76.0
-84.0
-90.0
-95.0
-97.0
-102.0
-104.0
-112.0
-115.0
-115.0
-112.0
-110.0
-112.0
-112.0
-107.0
-99.0
-86.0
-80.0
-72.0
-68.0
-60.0
-57.0
-63.0
-74.0
-90.0
-104.0
-117.0
-128.0
-137.0
-148.0
-148.0
-148.0
-145.0
-144.0
-148.0
-149.0
-149.0
-147.0
-145.0
-148.0
-150.0
-150.0
-147.0
-148.0
-148.0
-153.0
-156.0
-138.0
-83.0
3.0
121.0
254.0
355.0
385.0
333.0
219.0
179.0
-39.0
-139.0
-215.0
-253.0
-254.0
-223.0
-190.0
-177.0
-182.0
-194.0
-207.0
-209.0
-206.0
-204.0
-208.0
-215.0
-219.0
-221.0
-221.0
-221.0
-221.0
-226.0
-227.0
-228.0
-229.0
-233.0
-231.0
-230.0
-224.0
-220.0
-215.0
-211.0
-205.0
-198.0
-192.0
-183.0
-173.0
-161.0
-144.0
-131.0
-119.0
-110.0
-99.0
-84.0
-68.0
-53.0
-42.0
-30.0
-21.0
-17.0
2.0
10.0
17.0
22.0
28.0
31.0
33.0
34.0
32.0
28.0
26.0
28.0
27.0
21.0
15.0
5.0
1.0
-2.0
-5.0
-9.0
-16.0
-22.0
-28.0
-37.0
-41.0
-60.0
-68.0
-70.0
-73.0
-76.0
-83.0
-88.0
-92.0
-91.0
-90.0
-92.0
-92.0
-87.0
-80.0
-71.0
-62.0
-58.0
-55.0
-49.0
-40.0
-35.0
-35.0
-40.0
-53.0
-57.0
-85.0
-101.0
-116.0
-126.0
-129.0
-122.0
-121.0
-123.0
-128.0
-130.0
-131.0
-129.0
-125.0
-123.0
-124.0
-126.0
-130.0
-126.0
-123.0
-125.0
-127.0
-130.0
-125.0
-98.0
-84.0
42.0
151.0
267.0
359.0
382.0
321.0
211.0
85.0
-25.0
-104.0
-164.0
-211.0
-240.0
-236.0
-207.0
-179.0
-164.0
-163.0
-175.0
-180.0
-178.0
-177.0
-175.0
-179.0
-181.0
-186.0
-187.0
-187.0
-187.0
-189.0
-191.0
-191.0
-191.0
-189.0
-191.0
-192.0
-193.0
-186.0
-176.0
-172.0
-167.0
-165.0
-157.0
-147.0
-137.0
-133.0
-127.0
-121.0
-107.0
-102.0
-85.0
-74.0
-62.0
-49.0
-34.0
-23.0
-14.0
-10.0
-4.0
8.0
21.0
32.0
38.0
40.0
39.0
40.0
41.0
36.0
34.0
32.0
33.0
32.0
27.0
17.0
14.0
-2.0
-8.0
-14.0
-22.0
-25.0
-33.0
-39.0
-46.0
-50.0
-60.0
-70.0
-79.0
-84.0
-94.0
-102.0
-109.0
-114.0
-118.0
-117.0
-117.0
-116.0
-116.0
-118.0
-119.0
-119.0
-115.0
-105.0
-90.0
-76.0
-68.0
-63.0
-65.0
-59.0
-53.0
-50.0
-54.0
-69.0
-86.0
-106.0
-118.0
-128.0
-132.0
-135.0
-134.0
-130.0
-129.0
-131.0
-136.0
-140.0
-142.0
-134.0
-131.0
-129.0
-129.0
-132.0
-132.0
-131.0
-135.0
-142.0
-134.0
-95.0
-21.0
85.0
209.0
325.0
397.0
370.0
275.0
143.0
12.0
-103.0
-197.0
-266.0
-292.0
-295.0
-249.0
-213.0
-192.0
-186.0
-194.0
-201.0
-207.0
-209.0
-209.0
-206.0
-207.0
-211.0
-211.0
-213.0
-210.0
-211.0
-214.0
-218.0
-220.0
-214.0
-208.0
-203.0
-201.0
-202.0
-202.0
-194.0
-184.0
-178.0
-174.0
-169.0
-163.0
-153.0
-146.0
-142.0
-134.0
-124.0
-114.0
-103.0
-92.0
-83.0
-78.0
-70.0
-59.0
-46.0
-36.0
-27.0
-18.0
-11.0
-3.0
0.0
7.0
5.0
9.0
12.0
17.0
18.0
13.0
6.0
3.0
-5.0
-9.0
-11.0
-18.0
-27.0
-35.0
-43.0
-47.0
-54.0
-62.0
-70.0
-72.0
-78.0
-83.0
-93.0
-97.0
-112.0
-116.0
-113.0
-115.0
-114.0
-117.0
-120.0
-122.0
-121.0
-124.0
-123.0
-120.0
-110.0
-99.0
-90.0
-83.0
-78.0
-71.0
-63.0
-55.0
-51.0
-51.0
-57.0
-65.0
-67.0
-87.0
-105.0
-120.0
-131.0
-135.0
-139.0
-137.0
-140.0
-141.0
-145.0
-143.0
-139.0
-136.0
-136.0
-138.0
-145.0
-146.0
-146.0
-142.0
-141.0
-143.0
-150.0
-155.0
-156.0
-153.0
-94.0
-28.0
65.0
175.0
287.0
360.0
360.0
274.0
147.0
14.0
-98.0
-184.0
-250.0
-294.0
-297.0
-269.0
-229.0
-200.0
-191.0
-198.0
-205.0
-209.0
-210.0
-212.0
-213.0
-221.0
-223.0
-222.0
-220.0
-221.0
-223.0
-228.0
-231.0
-230.0
-228.0
-229.0
-228.0
-226.0
-221.0
-218.0
-213.0
-213.0
-209.0
-204.0
-196.0
-189.0
-180.0
-174.0
-169.0
-166.0
-147.0
-134.0
-122.0
-112.0
-100.0
-88.0
-76.0
-68.0
-64.0
-52.0
-39.0
-22.0
-9.0
0.0
4.0
8.0
14.0
17.0
24.0
25.0
24.0
22.0
19.0
15.0
14.0
7.0
2.0
-3.0
-6.0
-12.0
-25.0
-33.0
-42.0
-45.0
-51.0
-57.0
-66.0
-73.0
-78.0
-85.0
-92.0
-98.0
-109.0
-108.0
-104.0
-102.0
-101.0
-106.0
-110.0
-110.0
-99.0
-89.0
-81.0
-72.0
-65.0
-59.0
-51.0
-47.0
-46.0
-49.0
-53.0
-60.0
-73.0
-91.0
-109.0
-122.0
-129.0
-130.0
-131.0
-130.0
-128.0
-130.0
-129.0
-129.0
-129.0
-133.0
-135.0
-134.0
-128.0
-120.0
-119.0
-125.0
-132.0
-137.0
-143.0
-132.0
-103.0
-45.0
44.0
157.0
275.0
364.0
391.0
339.0
246.0
138.0
29.0
-77.0
-171.0
-198.0
-267.0
-246.0
-206.0
-174.0
-164.0
-173.0
-184.0
-191.0
-193.0
-195.0
-195.0
-195.0
-195.0
-196.0
-198.0
-203.0
-208.0
-213.0
-213.0
-212.0
-209.0
-211.0
-211.0
-215.0
-216.0
-211.0
-210.0
-205.0
-201.0
-194.0
-188.0
-186.0
-178.0
-174.0
-162.0
-150.0
-132.0
-119.0
-109.0
-97.0
-84.0
-74.0
-65.0
-54.0
-41.0
-29.0
-13.0
0.0
9.0
11.0
23.0
32.0
41.0
49.0
56.0
52.0
51.0
47.0
45.0
44.0
40.0
34.0
28.0
26.0
21.0
10.0
5.0
-1.0
-4.0
-8.0
-9.0
-17.0
-27.0
-38.0
-41.0
-53.0
-58.0
-63.0
-67.0
-74.0
-81.0
-82.0
-86.0
-90.0
-94.0
-94.0
-95.0
-91.0
-86.0
-78.0
-72.0
-66.0
-59.0
-51.0
-43.0
-37.0
-33.0
-30.0
-30.0
-31.0
-44.0
-61.0
-78.0
-95.0
-105.0
-106.0
-112.0
-116.0
-118.0
-120.0
-118.0
-115.0
-114.0
-118.0
-122.0
-121.0
-122.0
-120.0
-119.0
-121.0
-119.0
-119.0
-124.0
-129.0
-131.0
-116.0
-72.0
3.0
97.0
210.0
314.0
368.0
325.0
215.0
71.0
-62.0
-163.0
-228.0
-265.0
-269.0
-249.0
-216.0
-194.0
-184.0
-182.0
-187.0
-193.0
-196.0
-198.0
-198.0
-202.0
-204.0
-207.0
-208.0
-209.0
-208.0
-207.0
-209.0
-210.0
-209.0
-207.0
-202.0
-197.0
-193.0
-188.0
-183.0
-178.0
-173.0
-168.0
-163.0
-152.0
-140.0
-130.0
-121.0
-118.0
-106.0
-92.0
-78.0
-67.0
-59.0
-51.0
-42.0
-30.0
-21.0
-10.0
0.0
9.0
16.0
24.0
25.0
23.0
22.0
19.0
19.0
17.0
12.0
6.0
-1.0
-7.0
-10.0
-25.0
-35.0
-40.0
-43.0
-47.0
-53.0
-63.0
-73.0
-84.0
-90.0
-96.0
-103.0
-109.0
-113.0
-115.0
-121.0
-126.0
-129.0
-125.0
-119.0
-115.0
-118.0
-123.0
-122.0
-120.0
-105.0
-94.0
-83.0
-73.0
-62.0
-57.0
-52.0
-54.0
-59.0
-69.0
-83.0
-97.0
-112.0
-123.0
-128.0
-129.0
-132.0
-135.0
-137.0
-137.0
-133.0
-130.0
-129.0
-129.0
-129.0
-129.0
-130.0
-129.0
-130.0
-132.0
-135.0
-137.0
-132.0
-108.0
-54.0
30.0
139.0
256.0
351.0
393.0
367.0
266.0
136.0
2.0
-116.0
-209.0
-270.0
-285.0
-262.0
-252.0
-202.0
-190.0
-191.0
-197.0
-200.0
-202.0
-204.0
-209.0
-210.0
-214.0
-211.0
-212.0
-213.0
-217.0
-218.0
-218.0
-218.0
-220.0
-221.0
-220.0
-216.0
-207.0
-201.0
-202.0
-201.0
-200.0
-192.0
-183.0
-174.0
-167.0
-161.0
-150.0
-140.0
-131.0
-125.0
-119.0
-109.0
-96.0
-84.0
-71.0
-62.0
-57.0
-48.0
-35.0
-23.0
-10.0
-1.0
4.0
10.0
13.0
21.0
20.0
20.0
18.0
20.0
24.0
20.0
11.0
4.0
-3.0
-6.0
-11.0
-15.0
-24.0
-33.0
-42.0
-46.0
-53.0
-61.0
-69.0
-75.0
-80.0
-84.0
-93.0
-96.0
-102.0
-104.0
-99.0
-97.0
-98.0
-102.0
-103.0
-99.0
-93.0
-84.0
-75.0
-71.0
-62.0
-55.0
-46.0
-42.0
-45.0
-46.0
-52.0
-64.0
-82.0
-102.0
-120.0
-126.0
-127.0
-128.0
-131.0
-131.0
-132.0
-129.0
-127.0
-128.0
-133.0
-134.0
-135.0
-130.0
-127.0
-126.0
-129.0
-135.0
-137.0
-140.0
-128.0
-86.0
-20.0
68.0
178.0
288.0
366.0
382.0
301.0
184.0
45.0
-82.0
-185.0
-256.0
-283.0
-264.0
-225.0
-191.0
-175.0
-176.0
-186.0
-191.0
-192.0
-196.0
-197.0
-198.0
-199.0
-197.0
-198.0
-202.0
-206.0
-208.0
-208.0
-209.0
-212.0
-213.0
-209.0
-206.0
-202.0
-200.0
-203.0
-202.0
-195.0
-188.0
-177.0
-168.0
-157.0
-147.0
-136.0
-128.0
-122.0
-111.0
-96.0
-81.0
-67.0
-54.0
-42.0
-37.0
-23.0
-7.0
3.0
14.0
21.0
28.0
33.0
39.0
40.0
38.0
39.0
39.0
38.0
34.0
26.0
18.0
15.0
11.0
7.0
0.0
-7.0
-14.0
-19.0
-28.0
-30.0
-48.0
-58.0
-62.0
-64.0
-67.0
-75.0
-83.0
-90.0
-93.0
-95.0
-99.0
-97.0
-97.0
-93.0
-88.0
-85.0
-83.0
-78.0
-70.0
-60.0
-53.0
-45.0
-40.0
-38.0
-38.0
-41.0
-50.0
-63.0
-81.0
-97.0
-108.0
-116.0
-117.0
-120.0
-122.0
-121.0
-118.0
-116.0
-117.0
-118.0
-120.0
-119.0
-117.0
-117.0
-118.0
-119.0
-116.0
-117.0
-120.0
-122.0
-104.0
-60.0
20.0
120.0
230.0
328.0
373.0
323.0
213.0
71.0
-57.0
-148.0
-200.0
-226.0
-223.0
-204.0
-175.0
-159.0
-155.0
-162.0
-168.0
-173.0
-175.0
-176.0
-177.0
-180.0
-184.0
-184.0
-183.0
-180.0
-179.0
-182.0
-186.0
-188.0
-190.0
-187.0
-185.0
-177.0
-172.0
-164.0
-159.0
-154.0
-152.0
-146.0
-135.0
-123.0
-108.0
-99.0
-90.0
-87.0
-71.0
-60.0
-48.0
-40.0
-32.0
-23.0
-11.0
2.0
11.0
18.0
28.0
35.0
44.0
52.0
54.0
52.0
50.0
48.0
47.0
45.0
41.0
37.0
28.0
24.0
23.0
12.0
3.0
-7.0
-15.0
-17.0
-21.0
-26.0
-36.0
-47.0
-55.0
-59.0
-63.0
-70.0
-77.0
-82.0
-87.0
-90.0
-96.0
-100.0
-103.0
-102.0
-100.0
-97.0
-100.0
-100.0
-104.0
-99.0
-87.0
-74.0
-61.0
-56.0
-48.0
-43.0
-39.0
-40.0
-44.0
-47.0
-53.0
-64.0
-77.0
-94.0
-108.0
-114.0
-115.0
-112.0
-110.0
-110.0
-113.0
-114.0
-114.0
-116.0
-115.0
-116.0
-112.0
-109.0
-105.0
-105.0
-108.0
-109.0
-113.0
-111.0
-90.0
-46.0
21.0
112.0
212.0
303.0
351.0
325.0
244.0
144.0
42.0
-58.0
-146.0
-172.0
-255.0
-255.0
-225.0
-195.0
-174.0
-170.0
-180.0
-185.0
-188.0
-190.0
-190.0
-190.0
-190.0
-192.0
-194.0
-199.0
-204.0
-204.0
-203.0
-198.0
-195.0
-192.0
-192.0
-195.0
-194.0
-190.0
-184.0
-179.0
-173.0
-164.0
-158.0
-155.0
-147.0
-143.0
-139.0
-126.0
-114.0
-104.0
-94.0
-85.0
-76.0
-65.0
-53.0
-46.0
-38.0
-31.0
-21.0
-11.0
-1.0
1.0
12.0
14.0
21.0
26.0
29.0
27.0
24.0
23.0
20.0
18.0
14.0
10.0
4.0
-3.0
-9.0
-15.0
-23.0
-35.0
-45.0
-50.0
-50.0
-54.0
-60.0
-69.0
-73.0
-84.0
-90.0
-93.0
-100.0
-100.0
-101.0
-101.0
-103.0
-102.0
-107.0
-107.0
-105.0
-100.0
-91.0
-83.0
-75.0
-68.0
-62.0
-56.0
-46.0
-43.0
-39.0
-37.0
-40.0
-42.0
-60.0
-79.0
-94.0
-104.0
-107.0
-108.0
-111.0
-113.0
-115.0
-119.0
-119.0
-118.0
-114.0
-115.0
-116.0
-113.0
-113.0
-114.0
-115.0
-115.0
-117.0
-116.0
-117.0
-116.0
-114.0
-59.0
10.0
104.0
208.0
309.0
374.0
379.0
304.0
188.0
54.0
-70.0
-166.0
-230.0
-256.0
-240.0
-210.0
-181.0
-166.0
-166.0
-172.0
-179.0
-185.0
-186.0
-187.0
-187.0
-186.0
-188.0
-190.0
-192.0
-193.0
-192.0
-191.0
-192.0
-195.0
-199.0
-200.0
-195.0
-188.0
-186.0
-185.0
-182.0
-179.0
-171.0
-166.0
-160.0
-154.0
-146.0
-134.0
-127.0
-123.0
-112.0
-104.0
-91.0
-76.0
-61.0
-49.0
-39.0
-33.0
-24.0
-13.0
-2.0
9.0
16.0
27.0
39.0
47.0
51.0
52.0
49.0
51.0
53.0
55.0
51.0
45.0
42.0
28.0
24.0
20.0
13.0
8.0
1.0
-3.0
-9.0
-15.0
-26.0
-36.0
-43.0
-47.0
-47.0
-52.0
-60.0
-69.0
-77.0
-79.0
-79.0
-79.0
-80.0
-80.0
-82.0
-82.0
-84.0
-81.0
-76.0
-66.0
-52.0
-40.0
-31.0
-28.0
-27.0
-28.0
-25.0
-22.0
-24.0
-35.0
-51.0
-68.0
-81.0
-93.0
-101.0
-106.0
-109.0
-105.0
-103.0
-103.0
-104.0
-109.0
-112.0
-109.0
-105.0
-100.0
-100.0
-101.0
-104.0
-105.0
-106.0
-108.0
-112.0
-105.0
-77.0
-18.0
61.0
160.0
266.0
358.0
399.0
357.0
250.0
107.0
-33.0
-74.0
-223.0
-255.0
-240.0
-206.0
-166.0
-147.0
-144.0
-155.0
-168.0
-175.0
-177.0
-173.0
-169.0
-170.0
-177.0
-183.0
-185.0
-187.0
-186.0
-188.0
-189.0
-188.0
-186.0
-185.0
-186.0
-186.0
-184.0
-177.0
-168.0
-162.0
-159.0
-157.0
-147.0
-138.0
-128.0
-119.0
-111.0
-100.0
-90.0
-75.0
-65.0
-56.0
-47.0
-33.0
-19.0
-6.0
4.0
13.0
21.0
24.0
41.0
47.0
54.0
57.0
61.0
62.0
63.0
59.0
54.0
45.0
42.0
43.0
43.0
37.0
27.0
15.0
8.0
-2.0
-6.0
-12.0
-19.0
-24.0
-25.0
-28.0
-31.0
-45.0
-55.0
-61.0
-67.0
-68.0
-75.0
-81.0
-86.0
-86.0
-85.0
-83.0
-82.0
-77.0
-70.0
-58.0
-47.0
-43.0
-40.0
-35.0
-29.0
-23.0
-21.0
-24.0
-36.0
-40.0
-64.0
-80.0
-94.0
-100.0
-100.0
-94.0
-90.0
-91.0
-95.0
-100.0
-102.0
-96.0
-91.0
-89.0
-89.0
-91.0
-93.0
-91.0
-92.0
-92.0
-96.0
-93.0
-70.0
-19.0
0.0
153.0
264.0
359.0
401.0
358.0
246.0
108.0
-21.0
-122.0
-185.0
-226.0
-234.0
-213.0
-179.0
-148.0
-137.0
-143.0
-160.0
-165.0
-165.0
-161.0
-158.0
-160.0
-168.0
-171.0
-178.0
-176.0
-173.0
-173.0
-173.0
-174.0
-175.0
-175.0
-176.0
-176.0
-174.0
-167.0
-160.0
-152.0
-148.0
-144.0
-139.0
-135.0
-126.0
-116.0
-103.0
-96.0
-85.0
-73.0
-69.0
-52.0
-46.0
-37.0
-24.0
-10.0
2.0
10.0
16.0
25.0
34.0
46.0
54.0
59.0
60.0
62.0
61.0
62.0
63.0
61.0
57.0
54.0
50.0
47.0
41.0
37.0
18.0
8.0
7.0
5.0
-3.0
-13.0
-21.0
-28.0
-33.0
-42.0
-46.0
-50.0
-53.0
-59.0
-67.0
-76.0
-87.0
-94.0
-97.0
-97.0
-97.0
-94.0
-93.0
-94.0
-96.0
-86.0
-80.0
-71.0
-60.0
-50.0
-40.0
-32.0
-29.0
-28.0
-27.0
-25.0
-26.0
-36.0
-52.0
-74.0
-89.0
-98.0
-102.0
-106.0
-104.0
-104.0
-102.0
-100.0
-99.0
-102.0
-106.0
-107.0
-104.0
-102.0
-100.0
-101.0
-102.0
-106.0
-113.0
-112.0
-95.0
-39.0
40.0
142.0
258.0
357.0
388.0
336.0
212.0
64.0
-67.0
-160.0
-228.0
-260.0
-265.0
-228.0
-192.0
-169.0
-162.0
-165.0
-174.0
-182.0
-187.0
-187.0
-185.0
-185.0
-187.0
-190.0
-192.0
-189.0
-190.0
-189.0
-194.0
-197.0
-197.0
-192.0
-186.0
-186.0
-180.0
-178.0
-170.0
-166.0
-162.0
-153.0
-140.0
-129.0
-120.0
-113.0
-105.0
-94.0
-80.0
-67.0
-56.0
-46.0
-33.0
-21.0
-10.0
-1.0
7.0
17.0
28.0
37.0
43.0
42.0
41.0
40.0
42.0
44.0
38.0
34.0
29.0
27.0
21.0
12.0
1.0
-8.0
-14.0
-15.0
-18.0
-29.0
-41.0
-50.0
-54.0
-63.0
-67.0
-72.0
-77.0
-79.0
-80.0
-81.0
-88.0
-91.0
-90.0
-88.0
-87.0
-83.0
-77.0
-67.0
-56.0
-47.0
-40.0
-36.0
-32.0
-27.0
-21.0
-20.0
-31.0
-49.0
-67.0
-83.0
-94.0
-100.0
-105.0
-108.0
-109.0
-108.0
-110.0
-110.0
-111.0
-111.0
-111.0
-110.0
-109.0
-112.0
-112.0
-113.0
-108.0
-108.0
-112.0
-116.0
-117.0
-86.0
-26.0
62.0
173.0
290.0
382.0
409.0
350.0
322.0
113.0
-14.0
-122.0
-205.0
-249.0
-251.0
-223.0
-186.0
-161.0
-155.0
-165.0
-178.0
-187.0
-186.0
-181.0
-179.0
-182.0
-192.0
-196.0
-195.0
-193.0
-191.0
-194.0
-196.0
-198.0
-199.0
-200.0
-197.0
-198.0
-193.0
-191.0
-185.0
-179.0
-178.0
-175.0
-168.0
-158.0
-146.0
-136.0
-127.0
-121.0
-113.0
-101.0
-88.0
-76.0
-63.0
-50.0
-38.0
-25.0
-22.0
-3.0
2.0
14.0
25.0
38.0
45.0
50.0
50.0
50.0
53.0
55.0
54.0
51.0
50.0
49.0
47.0
40.0
30.0
21.0
13.0
9.0
6.0
0.0
-11.0
-14.0
-28.0
-34.0
-40.0
-42.0
-51.0
-59.0
-66.0
-69.0
-70.0
-75.0
-81.0
-84.0
-81.0
-78.0
-79.0
-79.0
-80.0
-75.0
-63.0
-47.0
-37.0
-27.0
-22.0
-17.0
-16.0
-18.0
-27.0
-33.0
-43.0
-63.0
-84.0
-102.0
-109.0
-109.0
-105.0
-103.0
-103.0
-105.0
-108.0
-107.0
-103.0
-102.0
-104.0
-104.0
-101.0
-100.0
-97.0
-102.0
-105.0
-107.0
-69.0
-12.0
66.0
159.0
262.0
354.0
391.0
333.0
217.0
71.0
-58.0
-152.0
-211.0
-240.0
-239.0
-216.0
-182.0
-156.0
-149.0
-155.0
-159.0
-163.0
-164.0
-165.0
-167.0
-175.0
-180.0
-178.0
-175.0
-175.0
-178.0
-182.0
-184.0
-183.0
-181.0
-182.0
-182.0
-181.0
-174.0
-165.0
-156.0
-153.0
-152.0
-150.0
-140.0
-130.0
-119.0
-113.0
-103.0
-99.0
-80.0
-69.0
-61.0
-52.0
-40.0
-25.0
-11.0
0.0
8.0
14.0
23.0
35.0
45.0
51.0
54.0
52.0
52.0
55.0
57.0
56.0
52.0
49.0
46.0
46.0
45.0
31.0
22.0
13.0
10.0
5.0
-5.0
-14.0
-20.0
-25.0
-33.0
-42.0
-52.0
-62.0
-64.0
-67.0
-73.0
-80.0
-89.0
-97.0
-98.0
-97.0
-95.0
-94.0
-97.0
-99.0
-99.0
-96.0
-88.0
-79.0
-71.0
-61.0
-50.0
-45.0
-41.0
-38.0
-34.0
-33.0
-30.0
-34.0
-48.0
-67.0
-85.0
-95.0
-101.0
-103.0
-106.0
-108.0
-106.0
-106.0
-107.0
-109.0
-112.0
-111.0
-108.0
-105.0
-100.0
-98.0
-104.0
-109.0
-113.0
-117.0
-121.0
-116.0
-91.0
-32.0
50.0
146.0
245.0
334.0
389.0
377.0
303.0
187.0
53.0
12.0
-172.0
-242.0
-272.0
-259.0
-222.0
-189.0
-170.0
-164.0
-170.0
-178.0
-186.0
-191.0
-190.0
-186.0
-185.0
-191.0
-193.0
-195.0
-197.0
-194.0
-193.0
-193.0
-196.0
-197.0
-198.0
-193.0
-190.0
-188.0
-186.0
-184.0
-178.0
-167.0
-162.0
-159.0
-155.0
-150.0
-140.0
-129.0
-116.0
-107.0
-97.0
-89.0
-82.0
-74.0
-62.0
-52.0
-38.0
-24.0
-12.0
-8.0
0.0
3.0
14.0
25.0
32.0
34.0
31.0
31.0
31.0
31.0
30.0
25.0
20.0
17.0
13.0
8.0
2.0
-9.0
-20.0
-26.0
-29.0
-34.0
-41.0
-51.0
-56.0
-69.0
-76.0
-82.0
-88.0
-93.0
-91.0
-90.0
-93.0
-95.0
-101.0
-101.0
-100.0
-94.0
-89.0
-80.0
-72.0
-63.0
-53.0
-47.0
-43.0
-35.0
-28.0
-25.0
-32.0
-36.0
-70.0
-90.0
-101.0
-108.0
-114.0
-117.0
-120.0
-117.0
-116.0
-118.0
-121.0
-122.0
-121.0
-116.0
-114.0
-116.0
-120.0
-122.0
-121.0
-126.0
-132.0
-134.0
-114.0
-64.0
-43.0
119.0
238.0
341.0
385.0
343.0
240.0
113.0
-9.0
-111.0
-193.0
-251.0
-272.0
-251.0
-213.0
-180.0
-166.0
-173.0
-186.0
-199.0
-203.0
-201.0
-198.0
-196.0
-199.0
-202.0
-209.0
-210.0
-212.0
-213.0
-213.0
-215.0
-214.0
-213.0
-213.0
-215.0
-215.0
-211.0
-206.0
-198.0
-193.0
-189.0
-188.0
-181.0
-172.0
-162.0
-155.0
-147.0
-138.0
-126.0
-122.0
-103.0
-94.0
-82.0
-67.0
-52.0
-37.0
-29.0
-23.0
-15.0
-6.0
4.0
12.0
16.0
22.0
26.0
30.0
29.0
27.0
20.0
18.0
18.0
18.0
12.0
6.0
3.0
-12.0
-18.0
-23.0
-28.0
-36.0
-41.0
-47.0
-53.0
-60.0
-69.0
-76.0
-82.0
-87.0
-84.0
-85.0
-87.0
-94.0
-100.0
-102.0
-103.0
-102.0
-98.0
-95.0
-86.0
-82.0
-69.0
-62.0
-61.0
-57.0
-51.0
-42.0
-38.0
-46.0
-59.0
-77.0
-95.0
-105.0
-113.0
-121.0
-125.0
-128.0
-127.0
-125.0
-128.0
-129.0
-129.0
-122.0
-118.0
-119.0
-118.0
-121.0
-123.0
-123.0
-125.0
-129.0
-133.0
-135.0
-113.0
-67.0
3.0
91.0
201.0
314.0
386.0
380.0
303.0
178.0
46.0
-67.0
-154.0
-215.0
-246.0
-245.0
-217.0
-206.0
-163.0
-162.0
-174.0
-185.0
-191.0
-188.0
-184.0
-187.0
-193.0
-201.0
-205.0
-203.0
-200.0
-202.0
-204.0
-207.0
-208.0
-208.0
-210.0
-212.0
-212.0
-208.0
-202.0
-197.0
-195.0
-194.0
-191.0
-183.0
-172.0
-161.0
-152.0
-143.0
-134.0
-123.0
-111.0
-99.0
-87.0
-73.0
-58.0
-43.0
-29.0
-20.0
-12.0
-7.0
3.0
15.0
25.0
34.0
37.0
38.0
46.0
47.0
46.0
41.0
36.0
38.0
39.0
34.0
28.0
16.0
8.0
6.0
3.0
-5.0
-11.0
-20.0
-27.0
-35.0
-44.0
-51.0
-57.0
-59.0
-62.0
-63.0
-65.0
-79.0
-85.0
-88.0
-87.0
-85.0
-86.0
-83.0
-76.0
-68.0
-61.0
-55.0
-51.0
-46.0
-38.0
-30.0
-24.0
-30.0
-41.0
-53.0
-66.0
-82.0
-93.0
-106.0
-112.0
-113.0
-113.0
-113.0
-114.0
-115.0
-116.0
-115.0
-110.0
-110.0
-112.0
-115.0
-116.0
-114.0
-109.0
-107.0
-110.0
-119.0
-123.0
-121.0
-95.0
-41.0
35.0
137.0
249.0
349.0
376.0
391.0
311.0
203.0
89.0
-21.0
-115.0
-192.0
-234.0
-239.0
-206.0
-169.0
-150.0
-152.0
-163.0
-170.0
-174.0
-173.0
-173.0
-179.0
-184.0
-187.0
-186.0
-182.0
-185.0
-187.0
-196.0
-199.0
-201.0
-200.0
-195.0
-194.0
-194.0
-197.0
-196.0
-193.0
-191.0
-187.0
-181.0
-170.0
-161.0
-152.0
-149.0
-142.0
-133.0
-120.0
-107.0
-93.0
-83.0
-69.0
-64.0
-42.0
-29.0
-20.0
-9.0
2.0
15.0
31.0
42.0
50.0
48.0
51.0
56.0
59.0
68.0
69.0
68.0
64.0
59.0
56.0
50.0
48.0
42.0
37.0
30.0
28.0
16.0
7.0
0.0
-1.0
-1.0
-2.0
-10.0
-20.0
-32.0
-43.0
-47.0
-51.0
-59.0
-64.0
-71.0
-76.0
-76.0
-74.0
-74.0
-79.0
-82.0
-83.0
-74.0
-65.0
-61.0
-49.0
-41.0
-31.0
-22.0
-16.0
-12.0
-13.0
-16.0
-20.0
-35.0
-51.0
-68.0
-82.0
-89.0
-89.0
-90.0
-91.0
-95.0
-98.0
-99.0
-94.0
-92.0
-91.0
-92.0
-92.0
-94.0
-93.0
-93.0
-90.0
-90.0
-94.0
-93.0
-94.0
-90.0
-55.0
4.0
96.0
208.0
321.0
397.0
403.0
319.0
200.0
71.0
-46.0
-142.0
-211.0
-249.0
-247.0
-241.0
-183.0
-155.0
-148.0
-151.0
-157.0
-158.0
-158.0
-162.0
-167.0
-173.0
-177.0
-176.0
-173.0
-172.0
-174.0
-177.0
-176.0
-175.0
-175.0
-175.0
-175.0
-171.0
-166.0
-164.0
-163.0
-159.0
-151.0
-145.0
-135.0
-126.0
-119.0
-112.0
-101.0
-93.0
-85.0
-79.0
-68.0
-57.0
-43.0
-29.0
-18.0
-9.0
-2.0
8.0
15.0
22.0
30.0
40.0
46.0
49.0
57.0
57.0
54.0
52.0
51.0
50.0
48.0
39.0
28.0
21.0
19.0
18.0
12.0
3.0
-4.0
-13.0
-18.0
-25.0
-34.0
-46.0
-57.0
-59.0
-60.0
-65.0
-67.0
-79.0
-81.0
-84.0
-87.0
-86.0
-86.0
-86.0
-84.0
-83.0
-86.0
-90.0
-87.0
-78.0
-66.0
-54.0
-46.0
-41.0
-32.0
-24.0
-19.0
-17.0
-20.0
-27.0
-40.0
-45.0
-76.0
-89.0
-97.0
-98.0
-95.0
-92.0
-97.0
-99.0
-100.0
-102.0
-99.0
-99.0
-98.0
-100.0
-99.0
-98.0
-94.0
-92.0
-99.0
-111.0
-118.0
-108.0
-73.0
-14.0
8.0
158.0
263.0
356.0
398.0
357.0
248.0
111.0
-22.0
-129.0
-211.0
-265.0
-275.0
-248.0
-209.0
-174.0
-159.0
-163.0
-171.0
-178.0
-181.0
-180.0
-178.0
-181.0
-182.0
-183.0
-189.0
-189.0
-194.0
-196.0
-196.0
-193.0
-190.0
-190.0
-191.0
-194.0
-193.0
-189.0
-186.0
-182.0
-179.0
-172.0
-166.0
-157.0
-154.0
-150.0
-143.0
-133.0
-122.0
-111.0
-109.0
-101.0
-96.0
-85.0
-71.0
-58.0
-49.0
-39.0
-27.0
-16.0
-6.0
1.0
6.0
15.0
20.0
28.0
33.0
34.0
29.0
28.0
25.0
25.0
23.0
18.0
12.0
9.0
-3.0
-12.0
-19.0
-28.0
-35.0
-39.0
-41.0
-46.0
-54.0
-68.0
-73.0
-78.0
-81.0
-84.0
-89.0
-93.0
-97.0
-95.0
-97.0
-98.0
-103.0
-99.0
-90.0
-79.0
-75.0
-63.0
-57.0
-56.0
-45.0
-35.0
-30.0
-32.0
-38.0
-48.0
-62.0
-81.0
-98.0
-110.0
-117.0
-118.0
-115.0
-116.0
-121.0
-126.0
-127.0
-125.0
-121.0
-118.0
-121.0
-123.0
-124.0
-121.0
-118.0
-119.0
-121.0
-125.0
-127.0
-123.0
-105.0
-56.0
23.0
136.0
259.0
365.0
416.0
397.0
307.0
187.0
55.0
-65.0
-162.0
-233.0
-264.0
-245.0
-235.0
-173.0
-164.0
-170.0
-182.0
-188.0
-187.0
-184.0
-187.0
-192.0
-198.0
-202.0
-206.0
-209.0
-210.0
-206.0
-206.0
-208.0
-212.0
-214.0
-215.0
-211.0
-205.0
-202.0
-199.0
-198.0
-191.0
-185.0
-179.0
-173.0
-165.0
-151.0
-138.0
-126.0
-118.0
-107.0
-95.0
-81.0
-67.0
-54.0
-43.0
-30.0
-17.0
-5.0
2.0
13.0
20.0
29.0
37.0
41.0
41.0
35.0
32.0
32.0
35.0
32.0
27.0
23.0
18.0
13.0
6.0
-3.0
-12.0
-17.0
-20.0
-20.0
-26.0
-34.0
-47.0
-54.0
-58.0
-61.0
-67.0
-72.0
-75.0
-76.0
-81.0
-84.0
-87.0
-89.0
-88.0
-81.0
-70.0
-64.0
-57.0
-50.0
-44.0
-40.0
-35.0
-31.0
-30.0
-32.0
-38.0
-54.0
-78.0
-100.0
-109.0
-114.0
-116.0
-117.0
-119.0
-123.0
-122.0
-120.0
-120.0
-119.0
-118.0
-113.0
-109.0
-109.0
-113.0
-121.0
-127.0
-129.0
-131.0
-122.0
-98.0
-41.0
43.0
158.0
286.0
375.0
383.0
312.0
187.0
143.0
-76.0
-162.0
-217.0
-238.0
-226.0
-191.0
-158.0
-147.0
-151.0
-160.0
-167.0
-170.0
-171.0
-168.0
-167.0
-165.0
-165.0
-169.0
-175.0
-177.0
-178.0
-175.0
-174.0
-175.0
-175.0
-175.0
-170.0
-168.0
-167.0
-164.0
-156.0
-147.0
-138.0
-133.0
-127.0
-120.0
-110.0
-96.0
-84.0
-77.0
-73.0
-65.0
-53.0
-37.0
-23.0
-8.0
7.0
21.0
32.0
36.0
42.0
41.0
47.0
54.0
57.0
62.0
61.0
61.0
61.0
54.0
49.0
40.0
34.0
32.0
32.0
30.0
23.0
10.0
1.0
-6.0
-9.0
-15.0
-21.0
-31.0
-35.0
-45.0
-50.0
-59.0
-69.0
-77.0
-81.0
-81.0
-81.0
-83.0
-88.0
-90.0
-92.0
-95.0
-95.0
-90.0
-84.0
-74.0
-66.0
-59.0
-53.0
-43.0
-31.0
-23.0
-17.0
-16.0
-23.0
-34.0
-48.0
-65.0
-78.0
-89.0
-96.0
-101.0
-102.0
-103.0
-102.0
-103.0
-103.0
-102.0
-101.0
-95.0
-93.0
-93.0
-96.0
-98.0
-97.0
-96.0
-95.0
-100.0
-102.0
-110.0
-94.0
-42.0
37.0
135.0
247.0
348.0
396.0
368.0
269.0
156.0
47.0
-44.0
-117.0
-183.0
-242.0
-259.0
-240.0
-202.0
-171.0
-155.0
-157.0
-167.0
-172.0
-173.0
-170.0
-171.0
-178.0
-183.0
-184.0
-184.0
-183.0
-182.0
-183.0
-184.0
-185.0
-185.0
-183.0
-181.0
-175.0
-167.0
-160.0
-156.0
-158.0
-158.0
-154.0
-143.0
-129.0
-119.0
-116.0
-110.0
-104.0
-95.0
-84.0
-75.0
-68.0
-61.0
-48.0
-36.0
-26.0
-16.0
-9.0
0.0
13.0
24.0
34.0
34.0
35.0
38.0
40.0
44.0
45.0
44.0
38.0
37.0
28.0
24.0
18.0
10.0
6.0
1.0
-6.0
-13.0
-25.0
-35.0
-41.0
-45.0
-47.0
-53.0
-61.0
-68.0
-76.0
-82.0
-85.0
-88.0
-90.0
-90.0
-89.0
-85.0
-84.0
-90.0
-94.0
-96.0
-92.0
-81.0
-68.0
-55.0
-47.0
-41.0
-36.0
-31.0
-29.0
-29.0
-28.0
-27.0
-33.0
-49.0
-69.0
-89.0
-102.0
-106.0
-104.0
-103.0
-103.0
-104.0
-110.0
-109.0
-108.0
-108.0
-108.0
-110.0
-109.0
-105.0
-104.0
-108.0
-114.0
-117.0
-119.0
-122.0
-113.0
-88.0
-37.0
30.0
104.0
186.0
277.0
356.0
384.0
328.0
302.0
84.0
-45.0
-150.0
-228.0
-268.0
-261.0
-223.0
-189.0
-168.0
-166.0
-172.0
-184.0
-189.0
-190.0
-188.0
-188.0
-190.0
-194.0
-197.0
-202.0
-205.0
-202.0
-200.0
-196.0
-197.0
-203.0
-205.0
-206.0
-202.0
-196.0
-194.0
-193.0
-186.0
-179.0
-173.0
-171.0
-167.0
-158.0
-149.0
-138.0
-128.0
-122.0
-117.0
-111.0
-99.0
-84.0
-71.0
-60.0
-50.0
-47.0
-29.0
-17.0
-10.0
-2.0
6.0
14.0
22.0
29.0
31.0
32.0
32.0
32.0
33.0
35.0
34.0
29.0
23.0
14.0
8.0
1.0
-5.0
-13.0
-15.0
-20.0
-22.0
-30.0
-40.0
-51.0
-60.0
-64.0
-67.0
-70.0
-77.0
-85.0
-93.0
-93.0
-94.0
-94.0
-95.0
-98.0
-96.0
-96.0
-92.0
-88.0
-83.0
-75.0
-65.0
-54.0
-44.0
-41.0
-38.0
-37.0
-36.0
-37.0
-38.0
-46.0
-60.0
-76.0
-94.0
-105.0
-114.0
-120.0
-124.0
-123.0
-121.0
-117.0
-115.0
-118.0
-122.0
-123.0
-121.0
-116.0
-112.0
-109.0
-111.0
-122.0
-129.0
-129.0
-131.0
-120.0
-83.0
-15.0
85.0
201.0
319.0
405.0
426.0
379.0
277.0
144.0
6.0
-114.0
-208.0
-253.0
-252.0
-218.0
-181.0
-160.0
-157.0
-159.0
-177.0
-186.0
-190.0
-193.0
-188.0
-188.0
-191.0
-192.0
-196.0
-199.0
-202.0
-204.0
-202.0
-204.0
-204.0
-206.0
-205.0
-205.0
-205.0
-207.0
-204.0
-194.0
-186.0
-181.0
-178.0
-174.0
-168.0
-158.0
-147.0
-132.0
-123.0
-110.0
-96.0
-86.0
-75.0
-67.0
-57.0
-42.0
-25.0
-9.0
3.0
12.0
18.0
26.0
32.0
35.0
38.0
41.0
45.0
46.0
44.0
37.0
31.0
24.0
20.0
16.0
10.0
5.0
0.0
-8.0
-14.0
-20.0
-25.0
-31.0
-34.0
-40.0
-46.0
-53.0
-64.0
-73.0
-75.0
-75.0
-72.0
-71.0
-72.0
-84.0
-90.0
-91.0
-87.0
-79.0
-70.0
-56.0
-43.0
-35.0
-30.0
-29.0
-29.0
-25.0
-24.0
-28.0
-42.0
-61.0
-80.0
-93.0
-104.0
-110.0
-113.0
-112.0
-108.0
-106.0
-108.0
-112.0
-112.0
-114.0
-109.0
-108.0
-108.0
-113.0
-116.0
-117.0
-118.0
-121.0
-124.0
-119.0
-89.0
-31.0
54.0
154.0
263.0
348.0
354.0
278.0
153.0
12.0
-31.0
-193.0
-246.0
-268.0
-259.0
-232.0
-198.0
-173.0
-162.0
-167.0
-177.0
-188.0
-192.0
-190.0
-185.0
-185.0
-184.0
-191.0
-196.0
-199.0
-196.0
-202.0
-198.0
-198.0
-193.0
-191.0
-184.0
-182.0
-182.0
-178.0
-170.0
-163.0
-157.0
-152.0
-150.0
-141.0
-135.0
-124.0
-115.0
-105.0
-93.0
-80.0
-71.0
-65.0
-61.0
-52.0
-39.0
-25.0
-12.0
-2.0
1.0
10.0
16.0
25.0
31.0
36.0
40.0
42.0
40.0
39.0
32.0
26.0
20.0
15.0
11.0
7.0
-2.0
-10.0
-17.0
-21.0
-26.0
-32.0
-39.0
-47.0
-52.0
-55.0
-62.0
-70.0
-80.0
-92.0
-97.0
-99.0
-101.0
-101.0
-107.0
-111.0
-111.0
-108.0
-107.0
-111.0
-113.0
-112.0
-104.0
-94.0
-85.0
-77.0
-70.0
-59.0
-48.0
-40.0
-38.0
-40.0
-42.0
-51.0
-57.0
-73.0
-90.0
-106.0
-113.0
-114.0
-113.0
-115.0
-120.0
-119.0
-120.0
-116.0
-114.0
-114.0
-116.0
-116.0
-116.0
-115.0
-113.0
-116.0
-119.0
-120.0
-123.0
-115.0
-81.0
-17.0
75.0
187.0
305.0
383.0
404.0
338.0
223.0
86.0
-44.0
-152.0
-230.0
-272.0
-265.0
-237.0
-204.0
-181.0
-173.0
-179.0
-184.0
-182.0
-184.0
-190.0
-195.0
-199.0
-200.0
-199.0
-200.0
-201.0
-205.0
-204.0
-205.0
-211.0
-211.0
-206.0
-199.0
-195.0
-193.0
-190.0
-189.0
-184.0
-178.0
-172.0
-162.0
-154.0
-146.0
-142.0
-124.0
-117.0
-112.0
-102.0
-88.0
-76.0
-64.0
-55.0
-43.0
-30.0
-18.0
-10.0
-1.0
2.0
11.0
18.0
21.0
22.0
20.0
19.0
20.0
18.0
15.0
10.0
7.0
-3.0
-7.0
-13.0
-21.0
-30.0
-37.0
-41.0
-46.0
-52.0
-67.0
-76.0
-83.0
-86.0
-88.0
-93.0
-98.0
-102.0
-103.0
-104.0
-104.0
-108.0
-108.0
-106.0
-95.0
-91.0
-76.0
-69.0
-63.0
-59.0
-49.0
-44.0
-44.0
-45.0
-47.0
-56.0
-71.0
-90.0
-108.0
-120.0
-126.0
-128.0
-125.0
-126.0
-133.0
-135.0
-133.0
-130.0
-132.0
-131.0
-130.0
-128.0
-131.0
-135.0
-137.0
-143.0
-144.0
-142.0
-127.0
-95.0
-33.0
46.0
143.0
260.0
353.0
367.0
296.0
162.0
8.0
-123.0
-222.0
-272.0
-276.0
-242.0
-201.0
-190.0
-174.0
-184.0
-193.0
-199.0
-201.0
-202.0
-202.0
-203.0
-207.0
-207.0
-213.0
-216.0
-217.0
-215.0
-210.0
-208.0
-209.0
-217.0
-221.0
-221.0
-217.0
-212.0
-210.0
-207.0
-207.0
-200.0
-191.0
-189.0
-183.0
-177.0
-168.0
-156.0
-145.0
-133.0
-126.0
-119.0
-110.0
-97.0
-81.0
-66.0
-55.0
-49.0
-38.0
-29.0
-19.0
-7.0
0.0
12.0
19.0
21.0
28.0
28.0
26.0
22.0
22.0
24.0
22.0
16.0
10.0
0.0
-4.0
-12.0
-20.0
-27.0
-35.0
-38.0
-41.0
-48.0
-55.0
-65.0
-74.0
-78.0
-85.0
-90.0
-93.0
-102.0
-106.0
-106.0
-106.0
-105.0
-109.0
-111.0
-112.0
-110.0
-108.0
-101.0
-93.0
-82.0
-71.0
-60.0
-54.0
-50.0
-52.0
-57.0
-65.0
-78.0
-93.0
-107.0
-117.0
-121.0
-133.0
-135.0
-137.0
-136.0
-134.0
-134.0
-136.0
-137.0
-138.0
-135.0
-132.0
-130.0
-132.0
-136.0
-133.0
-129.0
-130.0
-121.0
-85.0
-17.0
79.0
193.0
301.0
368.0
381.0
285.0
156.0
9.0
-115.0
-201.0
-244.0
-253.0
-224.0
-188.0
-166.0
-160.0
-162.0
-170.0
-176.0
-182.0
-185.0
-181.0
-182.0
-186.0
-196.0
-203.0
-202.0
-199.0
-195.0
-194.0
-193.0
-194.0
-196.0
-194.0
-192.0
-189.0
-182.0
-173.0
-167.0
-158.0
-152.0
-147.0
-137.0
-123.0
-111.0
-100.0
-93.0
-84.0
-73.0
-63.0
-55.0
-44.0
-31.0
-18.0
-14.0
5.0
11.0
15.0
22.0
29.0
34.0
40.0
39.0
38.0
38.0
34.0
27.0
18.0
9.0
7.0
4.0
0.0
-6.0
-17.0
-25.0
-32.0
-34.0
-41.0
-48.0
-50.0
-62.0
-69.0
-73.0
-82.0
-90.0
-96.0
-99.0
-103.0
-102.0
-108.0
-115.0
-120.0
-119.0
-113.0
-113.0
-111.0
-110.0
-103.0
-95.0
-83.0
-73.0
-66.0
-59.0
-53.0
-51.0
-49.0
-48.0
-54.0
-66.0
-83.0
-96.0
-107.0
-117.0
-120.0
-121.0
-123.0
-128.0
-130.0
-131.0
-126.0
-123.0
-122.0
-121.0
-120.0
-123.0
-124.0
-123.0
-125.0
-131.0
-134.0
-138.0
-127.0
-100.0
-48.0
30.0
130.0
244.0
339.0
372.0
313.0
195.0
54.0
-72.0
-164.0
-230.0
-269.0
-276.0
-254.0
-222.0
-195.0
-182.0
-182.0
-188.0
-191.0
-190.0
-193.0
-195.0
-201.0
-207.0
-202.0
-200.0
-202.0
-202.0
-203.0
-207.0
-206.0
-205.0
-204.0
-204.0
-202.0
-200.0
-197.0
-193.0
-189.0
-185.0
-180.0
-170.0
-163.0
-155.0
-153.0
-141.0
-132.0
-122.0
-117.0
-110.0
-101.0
-92.0
-79.0
-68.0
-60.0
-53.0
-46.0
-34.0
-20.0
-7.0
1.0
4.0
5.0
5.0
6.0
8.0
9.0
8.0
11.0
10.0
2.0
-5.0
-13.0
-21.0
-27.0
-26.0
-30.0
-40.0
-50.0
-61.0
-65.0
-71.0
-79.0
-87.0
-93.0
-95.0
-97.0
-103.0
-108.0
-116.0
-123.0
-120.0
-116.0
-115.0
-115.0
-117.0
-118.0
-110.0
-102.0
-96.0
-83.0
-74.0
-63.0
-56.0
-54.0
-54.0
-56.0
-55.0
-60.0
-73.0
-92.0
-109.0
-122.0
-129.0
-131.0
-132.0
-129.0
-130.0
-126.0
-124.0
-125.0
-128.0
-134.0
-135.0
-132.0
-129.0
-132.0
-135.0
-138.0
-141.0
-134.0
-108.0
-47.0
46.0
166.0
286.0
358.0
350.0
261.0
137.0
5.0
-112.0
-206.0
-260.0
-271.0
-245.0
-210.0
-190.0
-186.0
-190.0
-197.0
-201.0
-202.0
-205.0
-209.0
-212.0
-213.0
-216.0
-218.0
-221.0
-219.0
-215.0
-216.0
-220.0
-223.0
-223.0
-219.0
-216.0
-209.0
-208.0
-205.0
-199.0
-196.0
-190.0
-187.0
-178.0
-168.0
-152.0
-143.0
-135.0
-128.0
-118.0
-105.0
-89.0
-78.0
-66.0
-60.0
-52.0
-41.0
-29.0
-21.0
-12.0
-3.0
6.0
10.0
19.0
19.0
15.0
13.0
14.0
16.0
19.0
12.0
4.0
-3.0
-8.0
-13.0
-19.0
-26.0
-32.0
-34.0
-39.0
-46.0
-56.0
-67.0
-72.0
-78.0
-79.0
-79.0
-81.0
-89.0
-94.0
-97.0
-98.0
-99.0
-100.0
-103.0
-99.0
-95.0
-89.0
-84.0
-76.0
-67.0
-55.0
-47.0
-43.0
-43.0
-44.0
-47.0
-52.0
-63.0
-79.0
-98.0
-110.0
-114.0
-119.0
-122.0
-126.0
-128.0
-128.0
-126.0
-121.0
-121.0
-121.0
-125.0
-125.0
-125.0
-122.0
-122.0
-124.0
-126.0
-125.0
-130.0
-135.0
-128.0
-99.0
-41.0
44.0
153.0
190.0
363.0
407.0
380.0
299.0
188.0
66.0
-47.0
-141.0
-216.0
-249.0
-248.0
-218.0
-185.0
-168.0
-163.0
-169.0
-174.0
-181.0
-187.0
-194.0
-198.0
-193.0
-193.0
-193.0
-194.0
-200.0
-203.0
-204.0
-204.0
-204.0
-204.0
-204.0
-203.0
-202.0
-200.0
-200.0
-200.0
-194.0
-187.0
-176.0
-169.0
-162.0
-154.0
-147.0
-138.0
-130.0
-119.0
-110.0
-97.0
-92.0
-68.0
-52.0
-40.0
-31.0
-20.0
-5.0
8.0
18.0
25.0
31.0
38.0
43.0
51.0
56.0
55.0
53.0
52.0
48.0
42.0
35.0
30.0
27.0
25.0
24.0
23.0
5.0
-6.0
-11.0
-18.0
-24.0
-31.0
-39.0
-45.0
-49.0
-53.0
-59.0
-64.0
-73.0
-79.0
-84.0
-85.0
-85.0
-92.0
-98.0
-102.0
-103.0
-100.0
-94.0
-84.0
-80.0
-62.0
-54.0
-45.0
-43.0
-40.0
-37.0
-31.0
-34.0
-48.0
-66.0
-85.0
-96.0
-101.0
-104.0
-106.0
-110.0
-113.0
-112.0
-109.0
-107.0
-111.0
-112.0
-114.0
-109.0
-107.0
-103.0
-105.0
-108.0
-111.0
-110.0
-113.0
-104.0
-74.0
-15.0
65.0
155.0
251.0
335.0
377.0
339.0
244.0
113.0
-16.0
-119.0
-194.0
-240.0
-257.0
-247.0
-220.0
-211.0
-171.0
-164.0
-165.0
-171.0
-178.0
-181.0
-180.0
-175.0
-172.0
-172.0
-178.0
-188.0
-192.0
-191.0
-189.0
-187.0
-189.0
-189.0
-187.0
-183.0
-184.0
-179.0
-178.0
-173.0
-170.0
-159.0
-154.0
-150.0
-149.0
-144.0
-131.0
-116.0
-106.0
-100.0
-94.0
-89.0
-82.0
-70.0
-58.0
-49.0
-36.0
-25.0
-13.0
-9.0
-5.0
1.0
6.0
18.0
32.0
37.0
45.0
43.0
40.0
37.0
38.0
37.0
33.0
27.0
24.0
19.0
13.0
4.0
-6.0
-13.0
-14.0
-17.0
-22.0
-30.0
-40.0
-51.0
-54.0
-57.0
-61.0
-68.0
-71.0
-81.0
-85.0
-93.0
-93.0
-95.0
-96.0
-94.0
-89.0
-88.0
-91.0
-94.0
-95.0
-89.0
-78.0
-64.0
-55.0
-49.0
-42.0
-37.0
-32.0
-32.0
-32.0
-36.0
-35.0
-36.0
-57.0
-77.0
-94.0
-106.0
-109.0
-107.0
-103.0
-102.0
-104.0
-108.0
-111.0
-112.0
-111.0
-110.0
-110.0
-108.0
-106.0
-107.0
-110.0
-116.0
-122.0
-124.0
-117.0
-90.0
-79.0
43.0
150.0
271.0
366.0
398.0
346.0
253.0
149.0
42.0
-65.0
-164.0
-240.0
-271.0
-259.0
-216.0
-180.0
-167.0
-170.0
-180.0
-188.0
-189.0
-189.0
-189.0
-192.0
-194.0
-196.0
-201.0
-203.0
-210.0
-209.0
-208.0
-205.0
-204.0
-203.0
-203.0
-205.0
-205.0
-200.0
-196.0
-191.0
-187.0
-178.0
-172.0
-165.0
-159.0
-157.0
-149.0
-134.0
-122.0
-118.0
-108.0
-103.0
-94.0
-81.0
-67.0
-55.0
-43.0
-31.0
-20.0
-8.0
2.0
6.0
10.0
16.0
24.0
32.0
34.0
33.0
27.0
25.0
23.0
21.0
15.0
8.0
5.0
-1.0
-5.0
-14.0
-23.0
-30.0
-36.0
-38.0
-44.0
-54.0
-65.0
-75.0
-79.0
-81.0
-85.0
-86.0
-88.0
-88.0
-88.0
-92.0
-99.0
-101.0
-95.0
-84.0
-71.0
-66.0
-52.0
-45.0
-41.0
-37.0
-36.0
-39.0
-45.0
-53.0
-66.0
-88.0
-105.0
-114.0
-119.0
-115.0
-111.0
-114.0
-118.0
-120.0
-121.0
-117.0
-116.0
-118.0
-120.0
-117.0
-115.0
-111.0
-114.0
-122.0
-128.0
-130.0
-118.0
-84.0
-22.0
67.0
181.0
295.0
366.0
367.0
289.0
169.0
41.0
-66.0
-147.0
-207.0
-244.0
-251.0
-225.0
-191.0
-164.0
-159.0
-169.0
-178.0
-183.0
-184.0
-185.0
-187.0
-189.0
-187.0
-187.0
-190.0
-197.0
-201.0
-200.0
-197.0
-198.0
-198.0
-196.0
-196.0
-192.0
-190.0
-185.0
-182.0
-179.0
-172.0
-168.0
-155.0
-149.0
-141.0
-133.0
-121.0
-108.0
-98.0
-90.0
-82.0
-72.0
-58.0
-47.0
-34.0
-21.0
-11.0
4.0
18.0
27.0
33.0
38.0
40.0
46.0
50.0
51.0
52.0
48.0
46.0
42.0
35.0
31.0
27.0
26.0
22.0
15.0
7.0
-2.0
-11.0
-15.0
-18.0
-24.0
-32.0
-39.0
-45.0
-50.0
-56.0
-61.0
-68.0
-71.0
-73.0
-74.0
-76.0
-79.0
-81.0
-84.0
-81.0
-72.0
-64.0
-57.0
-51.0
-48.0
-40.0
-36.0
-31.0
-29.0
-30.0
-30.0
-34.0
-44.0
-63.0
-83.0
-100.0
-109.0
-109.0
-107.0
-106.0
-108.0
-110.0
-111.0
-110.0
-109.0
-111.0
-111.0
-108.0
-106.0
-103.0
-105.0
-110.0
-116.0
-117.0
-110.0
-82.0
-29.0
41.0
118.0
202.0
297.0
369.0
379.0
301.0
267.0
32.0
-90.0
-172.0
-220.0
-233.0
-213.0
-180.0
-151.0
-138.0
-142.0
-155.0
-161.0
-165.0
-164.0
-163.0
-161.0
-162.0
-164.0
-170.0
-179.0
-184.0
-183.0
-181.0
-178.0
-176.0
-172.0
-171.0
-168.0
-166.0
-164.0
-164.0
-158.0
-149.0
-141.0
-137.0
-132.0
-124.0
-117.0
-104.0
-92.0
-83.0
-72.0
-61.0
-52.0
-40.0
-32.0
-21.0
-13.0
0.0
4.0
25.0
34.0
40.0
47.0
54.0
59.0
58.0
58.0
57.0
57.0
57.0
52.0
43.0
34.0
29.0
26.0
19.0
11.0
1.0
-5.0
-11.0
-15.0
-16.0
-23.0
-26.0
-40.0
-47.0
-54.0
-62.0
-72.0
-78.0
-83.0
-83.0
-82.0
-87.0
-89.0
-92.0
-92.0
-88.0
-85.0
-77.0
-65.0
-54.0
-46.0
-40.0
-33.0
-25.0
-18.0
-12.0
-11.0
-20.0
-37.0
-59.0
-76.0
-89.0
-90.0
-93.0
-93.0
-95.0
-90.0
-92.0
-94.0
-95.0
-96.0
-94.0
-90.0
-89.0
-91.0
-95.0
-94.0
-94.0
-99.0
-106.0
-106.0
-105.0
-50.0
23.0
119.0
235.0
343.0
399.0
374.0
270.0
137.0
8.0
-92.0
-165.0
-219.0
-243.0
-233.0
-203.0
-170.0
-148.0
-146.0
-158.0
-167.0
-172.0
-171.0
-171.0
-170.0
-171.0
-176.0
-178.0
-178.0
-178.0
-177.0
-178.0
-176.0
-172.0
-170.0
-170.0
-167.0
-170.0
-167.0
-158.0
-148.0
-144.0
-143.0
-141.0
-137.0
-131.0
-120.0
-108.0
-99.0
-97.0
-82.0
-70.0
-59.0
-50.0
-43.0
-33.0
-20.0
-5.0
0.0
8.0
14.0
23.0
33.0
41.0
48.0
50.0
53.0
54.0
50.0
47.0
43.0
37.0
36.0
35.0
34.0
21.0
9.0
1.0
-6.0
-12.0
-14.0
-21.0
-24.0
-31.0
-36.0
-42.0
-50.0
-59.0
-64.0
-68.0
-68.0
-69.0
-73.0
-77.0
-82.0
-84.0
-83.0
-81.0
-80.0
-78.0
-69.0
-59.0
-51.0
-43.0
-36.0
-27.0
-18.0
-12.0
-12.0
-16.0
-25.0
-38.0
-49.0
-62.0
-74.0
-85.0
-90.0
-92.0
-91.0
-92.0
-96.0
-100.0
-100.0
-97.0
-96.0
-95.0
-96.0
-99.0
-102.0
-103.0
-103.0
-106.0
-112.0
-115.0
-106.0
-78.0
-22.0
58.0
157.0
272.0
369.0
397.0
348.0
240.0
114.0
-3.0
-91.0
-156.0
-210.0
-225.0
-235.0
-206.0
-178.0
-161.0
-159.0
-166.0
-173.0
-172.0
-170.0
-170.0
-175.0
-183.0
-186.0
-185.0
-181.0
-181.0
-183.0
-188.0
-190.0
-191.0
-192.0
-190.0
-191.0
-188.0
-186.0
-177.0
-175.0
-174.0
-172.0
-169.0
-159.0
-150.0
-141.0
-135.0
-130.0
-124.0
-113.0
-102.0
-90.0
-77.0
-65.0
-50.0
-36.0
-26.0
-17.0
-10.0
0.0
14.0
27.0
32.0
42.0
43.0
47.0
50.0
50.0
50.0
47.0
47.0
47.0
44.0
37.0
28.0
18.0
12.0
9.0
2.0
-6.0
-14.0
-21.0
-26.0
-34.0
-43.0
-49.0
-54.0
-53.0
-57.0
-63.0
-71.0
-76.0
-80.0
-79.0
-74.0
-75.0
-76.0
-79.0
-83.0
-78.0
-71.0
-58.0
-47.0
-41.0
-35.0
-33.0
-25.0
-19.0
-19.0
-25.0
-30.0
-36.0
-39.0
-65.0
-84.0
-98.0
-105.0
-106.0
-103.0
-102.0
-100.0
-101.0
-98.0
-98.0
-102.0
-104.0
-103.0
-104.0
-100.0
-99.0
-102.0
-110.0
-116.0
-113.0
-90.0
-47.0
14.0
34.0
180.0
288.0
372.0
386.0
317.0
199.0
67.0
-47.0
-142.0
-208.0
-243.0
-244.0
-216.0
-175.0
-152.0
-144.0
-151.0
-163.0
-168.0
-170.0
-171.0
-174.0
-176.0
-176.0
-177.0
-173.0
-178.0
-181.0
-185.0
-188.0
-186.0
-183.0
-181.0
-184.0
-183.0
-180.0
-176.0
-176.0
-174.0
-169.0
-162.0
-156.0
-146.0
-139.0
-134.0
-129.0
-117.0
-103.0
-90.0
-85.0
-70.0
-60.0
-47.0
-37.0
-28.0
-18.0
-7.0
6.0
22.0
34.0
40.0
43.0
49.0
54.0
63.0
68.0
71.0
65.0
59.0
54.0
52.0
51.0
48.0
40.0
38.0
29.0
21.0
14.0
6.0
1.0
-3.0
-4.0
-8.0
-13.0
-21.0
-29.0
-36.0
-44.0
-52.0
-56.0
-59.0
-58.0
-59.0
-64.0
-70.0
-76.0
-79.0
-76.0
-72.0
-70.0
-58.0
-53.0
-48.0
-41.0
-35.0
-28.0
-19.0
-13.0
-11.0
-9.0
-11.0
-19.0
-32.0
-50.0
-68.0
-79.0
-87.0
-90.0
-89.0
-91.0
-97.0
-101.0
-101.0
-96.0
-93.0
-92.0
-96.0
-98.0
-98.0
-94.0
-92.0
-91.0
-94.0
-97.0
-103.0
-105.0
-98.0
-77.0
-26.0
52.0
154.0
272.0
370.0
387.0
317.0
196.0
64.0
-45.0
-115.0
-133.0
-201.0
-231.0
-235.0
-213.0
-184.0
-162.0
-153.0
-157.0
-163.0
-171.0
-176.0
-179.0
-181.0
-181.0
-180.0
-180.0
-181.0
-182.0
-182.0
-183.0
-185.0
-186.0
-188.0
-185.0
-183.0
-174.0
-171.0
-167.0
-167.0
-165.0
-156.0
-148.0
-138.0
-135.0
-129.0
-122.0
-112.0
-101.0
-91.0
-82.0
-72.0
-61.0
-54.0
-43.0
-31.0
-22.0
-10.0
6.0
16.0
20.0
31.0
35.0
39.0
42.0
43.0
45.0
48.0
47.0
49.0
42.0
34.0
22.0
15.0
13.0
10.0
6.0
3.0
-3.0
-12.0
-20.0
-27.0
-38.0
-45.0
-53.0
-55.0
-59.0
-63.0
-70.0
-82.0
-92.0
-97.0
-95.0
-92.0
-94.0
-96.0
-100.0
-101.0
-102.0
-100.0
-96.0
-90.0
-81.0
-68.0
-61.0
-54.0
-48.0
-40.0
-34.0
-30.0
-31.0
-43.0
-55.0
-70.0
-85.0
-99.0
-106.0
-109.0
-108.0
-105.0
-104.0
-106.0
-104.0
-107.0
-107.0
-105.0
-103.0
-105.0
-108.0
-109.0
-108.0
-110.0
-117.0
-122.0
-110.0
-102.0
-12.0
63.0
157.0
264.0
358.0
393.0
347.0
234.0
95.0
-32.0
-138.0
-215.0
-262.0
-269.0
-245.0
-208.0
-176.0
-161.0
-160.0
-172.0
-180.0
-184.0
-183.0
-178.0
-178.0
-177.0
-180.0
-185.0
-189.0
-191.0
-193.0
-194.0
-191.0
-187.0
-185.0
-185.0
-188.0
-186.0
-181.0
-175.0
-169.0
-167.0
-163.0
-159.0
-151.0
-144.0
-141.0
-132.0
-121.0
-117.0
-99.0
-90.0
-85.0
-80.0
-76.0
-63.0
-49.0
-32.0
-21.0
-9.0
0.0
9.0
15.0
20.0
26.0
29.0
35.0
37.0
35.0
28.0
23.0
22.0
22.0
19.0
18.0
2.0
-8.0
-11.0
-15.0
-19.0
-25.0
-31.0
-35.0
-39.0
-45.0
-53.0
-60.0
-71.0
-78.0
-82.0
-83.0
-81.0
-85.0
-88.0
-91.0
-91.0
-91.0
-92.0
-93.0
-93.0
-80.0
-67.0
-56.0
-51.0
-50.0
-44.0
-36.0
-29.0
-24.0
-23.0
-29.0
-39.0
-54.0
-67.0
-84.0
-95.0
-105.0
-108.0
-106.0
-104.0
-105.0
-112.0
-119.0
-117.0
-116.0
-109.0
-107.0
-109.0
-114.0
-116.0
-115.0
-115.0
-115.0
-115.0
-121.0
-119.0
-101.0
-54.0
21.0
126.0
243.0
352.0
415.0
389.0
301.0
177.0
47.0
-68.0
-163.0
-189.0
-258.0
-244.0
-205.0
-171.0
-157.0
-162.0
-173.0
-181.0
-184.0
-185.0
-186.0
-188.0
-193.0
-194.0
-195.0
-195.0
-198.0
-197.0
-201.0
-201.0
-199.0
-200.0
-201.0
-198.0
-196.0
-188.0
-184.0
-181.0
-176.0
-170.0
-159.0
-151.0
-144.0
-140.0
-128.0
-115.0
-105.0
-96.0
-85.0
-72.0
-59.0
-44.0
-34.0
-25.0
-19.0
-6.0
9.0
25.0
31.0
34.0
41.0
44.0
46.0
43.0
35.0
32.0
31.0
32.0
31.0
25.0
16.0
9.0
4.0
-3.0
-6.0
-14.0
-19.0
-26.0
-33.0
-40.0
-51.0
-59.0
-63.0
-67.0
-68.0
-72.0
-78.0
-82.0
-86.0
-88.0
-90.0
-94.0
-92.0
-89.0
-80.0
-72.0
-66.0
-60.0
-52.0
-44.0
-37.0
-31.0
-29.0
-35.0
-43.0
-57.0
-74.0
-92.0
-103.0
-107.0
-105.0
-104.0
-108.0
-115.0
-120.0
-118.0
-113.0
-112.0
-110.0
-108.0
-109.0
-110.0
-111.0
-113.0
-115.0
-116.0
-109.0
-90.0
-39.0
39.0
155.0
283.0
390.0
416.0
411.0
237.0
96.0
-32.0
-137.0
-212.0
-242.0
-232.0
-195.0
-160.0
-144.0
-148.0
-162.0
-170.0
-171.0
-169.0
-168.0
-168.0
-168.0
-171.0
-173.0
-174.0
-174.0
-179.0
-181.0
-183.0
-180.0
-181.0
-184.0
-185.0
-179.0
-176.0
-169.0
-166.0
-159.0
-150.0
-143.0
-137.0
-132.0
-124.0
-114.0
-101.0
-92.0
-80.0
-73.0
-59.0
-49.0
-38.0
-23.0
-11.0
-7.0
12.0
23.0
32.0
38.0
43.0
49.0
57.0
67.0
68.0
65.0
63.0
63.0
61.0
59.0
54.0
50.0
43.0
39.0
34.0
29.0
20.0
13.0
7.0
5.0
3.0
-4.0
-13.0
-20.0
-28.0
-35.0
-39.0
-42.0
-45.0
-46.0
-52.0
-54.0
-56.0
-62.0
-67.0
-71.0
-69.0
-66.0
-58.0
-54.0
-48.0
-39.0
-29.0
-18.0
-13.0
-11.0
-6.0
-4.0
-6.0
-12.0
-29.0
-50.0
-66.0
-78.0
-83.0
-87.0
-91.0
-91.0
-94.0
-94.0
-92.0
-89.0
-90.0
-88.0
-88.0
-88.0
-89.0
-93.0
-94.0
-93.0
-92.0
-94.0
-85.0
-46.0
20.0
114.0
228.0
342.0
402.0
383.0
275.0
131.0
-12.0
-124.0
-199.0
-226.0
-216.0
-181.0
-148.0
-134.0
-136.0
-141.0
-148.0
-152.0
-151.0
-152.0
-148.0
-150.0
-153.0
-156.0
-159.0
-161.0
-160.0
-159.0
-158.0
-157.0
-159.0
-158.0
-155.0
-151.0
-148.0
-141.0
-135.0
-126.0
-120.0
-115.0
-109.0
-101.0
-90.0
-78.0
-73.0
-56.0
-46.0
-37.0
-29.0
-22.0
-13.0
-3.0
11.0
28.0
41.0
48.0
52.0
56.0
63.0
70.0
77.0
78.0
77.0
75.0
72.0
65.0
57.0
51.0
48.0
47.0
43.0
34.0
23.0
12.0
6.0
1.0
-2.0
-7.0
-14.0
-22.0
-29.0
-35.0
-46.0
-54.0
-62.0
-67.0
-66.0
-65.0
-71.0
-77.0
-80.0
-83.0
-80.0
-81.0
-80.0
-80.0
-77.0
-71.0
-60.0
-51.0
-39.0
-30.0
-22.0
-14.0
-10.0
-10.0
-18.0
-26.0
-34.0
-44.0
-57.0
-68.0
-79.0
-86.0
-88.0
-88.0
-91.0
-91.0
-94.0
-95.0
-89.0
-84.0
-83.0
-85.0
-88.0
-88.0
-85.0
-82.0
-82.0
-91.0
-100.0
-96.0
-72.0
-25.0
43.0
127.0
233.0
340.0
406.0
394.0
310.0
185.0
52.0
-59.0
-89.0
-209.0
-247.0
-249.0
-224.0
-188.0
-160.0
-143.0
-145.0
-153.0
-161.0
-163.0
-160.0
-162.0
-163.0
-164.0
-165.0
-167.0
-167.0
-170.0
-173.0
-177.0
-177.0
-171.0
-165.0
-163.0
-158.0
-158.0
-155.0
-155.0
-157.0
-151.0
-141.0
-132.0
-122.0
-115.0
-110.0
-108.0
-102.0
-96.0
-86.0
-74.0
-67.0
-58.0
-48.0
-35.0
-24.0
-15.0
-8.0
2.0
5.0
22.0
30.0
34.0
39.0
44.0
50.0
59.0
59.0
56.0
50.0
50.0
45.0
42.0
39.0
30.0
24.0
19.0
17.0
11.0
1.0
-10.0
-21.0
-25.0
-27.0
-28.0
-34.0
-43.0
-52.0
-57.0
-63.0
-66.0
-70.0
-74.0
-77.0
-75.0
-73.0
-73.0
-76.0
-80.0
-79.0
-70.0
-61.0
-50.0
-42.0
-33.0
-24.0
-16.0
-11.0
-12.0
-12.0
-14.0
-17.0
-31.0
-54.0
-74.0
-87.0
-91.0
-89.0
-88.0
-90.0
-92.0
-91.0
-89.0
-94.0
-92.0
-95.0
-92.0
-90.0
-89.0
-92.0
-100.0
-104.0
-107.0
-104.0
-100.0
-32.0
52.0
163.0
284.0
384.0
418.0
377.0
274.0
155.0
36.0
-70.0
-162.0
-228.0
-252.0
-231.0
-193.0
-162.0
-149.0
-154.0
-166.0
-174.0
-179.0
-181.0
-180.0
-179.0
-177.0
-178.0
-182.0
-187.0
-191.0
-191.0
-190.0
-186.0
-189.0
-187.0
-186.0
-181.0
-181.0
-180.0
-175.0
-167.0
-159.0
-153.0
-150.0
-146.0
-143.0
-133.0
-123.0
-112.0
-108.0
-90.0
-80.0
-68.0
-59.0
-52.0
-41.0
-30.0
-15.0
0.0
11.0
17.0
24.0
30.0
38.0
44.0
46.0
45.0
46.0
48.0
44.0
40.0
34.0
29.0
27.0
27.0
21.0
12.0
0.0
-8.0
-13.0
-15.0
-18.0
-24.0
-30.0
-37.0
-44.0
-51.0
-59.0
-66.0
-70.0
-72.0
-70.0
-70.0
-70.0
-73.0
-78.0
-78.0
-75.0
-70.0
-69.0
-54.0
-46.0
-40.0
-34.0
-29.0
-26.0
-20.0
-17.0
-16.0
-23.0
-34.0
-53.0
-70.0
-80.0
-87.0
-95.0
-98.0
-99.0
-104.0
-103.0
-101.0
-102.0
-104.0
-102.0
-101.0
-95.0
-94.0
-96.0
-101.0
-104.0
-105.0
-103.0
-106.0
-107.0
-92.0
-50.0
17.0
99.0
193.0
288.0
373.0
406.0
375.0
278.0
147.0
18.0
-94.0
-178.0
-227.0
-237.0
-214.0
-180.0
-156.0
-147.0
-150.0
-159.0
-167.0
-168.0
-167.0
-166.0
-165.0
-166.0
-170.0
-176.0
-178.0
-177.0
-174.0
-175.0
-179.0
-184.0
-186.0
-182.0
-177.0
-175.0
-175.0
-172.0
-166.0
-161.0
-155.0
-153.0
-150.0
-142.0
-134.0
-120.0
-111.0
-106.0
-104.0
-99.0
-86.0
-69.0
-53.0
-42.0
-30.0
-19.0
-5.0
8.0
17.0
23.0
33.0
37.0
52.0
63.0
63.0
66.0
65.0
66.0
69.0
68.0
65.0
62.0
59.0
54.0
49.0
43.0
35.0
27.0
27.0
23.0
16.0
4.0
-4.0
-13.0
-19.0
-20.0
-22.0
-31.0
-37.0
-43.0
-49.0
-53.0
-57.0
-58.0
-56.0
-55.0
-57.0
-59.0
-60.0
-59.0
-49.0
-35.0
-27.0
-23.0
-20.0
-11.0
-5.0
-2.0
-10.0
-23.0
-35.0
-39.0
-56.0
-68.0
-83.0
-91.0
-95.0
-97.0
-96.0
-97.0
-96.0
-96.0
-93.0
-90.0
-91.0
-94.0
-96.0
-93.0
-88.0
-89.0
-96.0
-104.0
-97.0
-60.0
6.0
94.0
123.0
295.0
380.0
414.0
368.0
258.0
117.0
-15.0
-112.0
-176.0
-209.0
-216.0
-199.0
-169.0
-141.0
-129.0
-130.0
-142.0
-153.0
-156.0
-155.0
-152.0
-153.0
-156.0
-160.0
-160.0
-159.0
-163.0
-165.0
-169.0
-171.0
-168.0
-164.0
-160.0
-160.0
-155.0
-151.0
-146.0
-143.0
-141.0
-136.0
-131.0
-120.0
-108.0
-99.0
-91.0
-83.0
-72.0
-58.0
-43.0
-40.0
-23.0
-17.0
-8.0
1.0
13.0
24.0
37.0
49.0
59.0
64.0
67.0
67.0
65.0
65.0
66.0
64.0
64.0
62.0
58.0
52.0
46.0
38.0
30.0
24.0
24.0
21.0
17.0
7.0
-4.0
-15.0
-19.0
-20.0
-26.0
-34.0
-44.0
-54.0
-60.0
-66.0
-72.0
-76.0
-80.0
-79.0
-77.0
-77.0
-79.0
-86.0
-89.0
-88.0
-80.0
-77.0
-61.0
-52.0
-40.0
-32.0
-28.0
-26.0
-23.0
-18.0
-13.0
-12.0
-21.0
-40.0
-63.0
-78.0
-88.0
-90.0
-90.0
-88.0
-91.0
-93.0
-95.0
-92.0
-91.0
-92.0
-93.0
-91.0
-89.0
-87.0
-90.0
-93.0
-98.0
-101.0
-100.0
-94.0
-66.0
-12.0
74.0
185.0
306.0
395.0
419.0
357.0
258.0
145.0
35.0
-64.0
-151.0
-220.0
-247.0
-249.0
-198.0
-164.0
-148.0
-147.0
-153.0
-160.0
-164.0
-163.0
-165.0
-166.0
-164.0
-166.0
-171.0
-177.0
-181.0
-180.0
-172.0
-168.0
-168.0
-171.0
-173.0
-174.0
-170.0
-163.0
-160.0
-154.0
-151.0
-146.0
-141.0
-136.0
-134.0
-126.0
-118.0
-105.0
-95.0
-86.0
-81.0
-71.0
-61.0
-46.0
-37.0
-27.0
-20.0
-12.0
-2.0
7.0
15.0
23.0
32.0
35.0
49.0
55.0
55.0
53.0
51.0
54.0
56.0
54.0
50.0
42.0
34.0
27.0
20.0
11.0
2.0
-6.0
-6.0
-10.0
-15.0
-25.0
-34.0
-45.0
-48.0
-53.0
-54.0
-64.0
-68.0
-69.0
-70.0
-72.0
-74.0
-78.0
-74.0
-72.0
-70.0
-64.0
-59.0
-50.0
-39.0
-28.0
-21.0
-16.0
-12.0
-9.0
-11.0
-17.0
-28.0
-44.0
-59.0
-63.0
-78.0
-87.0
-90.0
-92.0
-91.0
-91.0
-91.0
-91.0
-92.0
-91.0
-92.0
-91.0
-94.0
-98.0
-98.0
-94.0
-93.0
-96.0
-101.0
-96.0
-57.0
18.0
121.0
242.0
279.0
415.0
401.0
315.0
208.0
93.0
-21.0
-123.0
-201.0
-244.0
-236.0
-205.0
-169.0
-148.0
-148.0
-161.0
-170.0
-173.0
-174.0
-170.0
-170.0
-176.0
-183.0
-186.0
-184.0
-183.0
-178.0
-180.0
-184.0
-186.0
-187.0
-182.0
-179.0
-176.0
-172.0
-169.0
-162.0
-157.0
-159.0
-158.0
-153.0
-142.0
-130.0
-118.0
-108.0
-99.0
-92.0
-80.0
-69.0
-58.0
-54.0
-38.0
-26.0
-15.0
-4.0
2.0
8.0
16.0
30.0
44.0
52.0
53.0
54.0
53.0
52.0
50.0
50.0
45.0
41.0
39.0
37.0
28.0
15.0
4.0
1.0
2.0
-1.0
-7.0
-19.0
-30.0
-34.0
-40.0
-46.0
-52.0
-57.0
-62.0
-64.0
-67.0
-74.0
-82.0
-83.0
-82.0
-78.0
-76.0
-72.0
-70.0
-63.0
-55.0
-48.0
-42.0
-39.0
-30.0
-21.0
-17.0
-19.0
-28.0
-45.0
-61.0
-76.0
-85.0
-96.0
-102.0
-108.0
-110.0
-109.0
-108.0
-107.0
-109.0
-109.0
-107.0
-106.0
-110.0
-112.0
-116.0
-113.0
-113.0
-114.0
-114.0
-119.0
-113.0
-79.0
-20.0
56.0
149.0
258.0
357.0
408.0
376.0
279.0
151.0
23.0
-86.0
-167.0
-225.0
-249.0
-238.0
-209.0
-177.0
-156.0
-156.0
-159.0
-174.0
-178.0
-176.0
-176.0
-175.0
-179.0
-181.0
-184.0
-183.0
-183.0
-182.0
-186.0
-189.0
-188.0
-188.0
-188.0
-186.0
-184.0
-179.0
-174.0
-173.0
-169.0
-169.0
-158.0
-154.0
-131.0
-122.0
-117.0
-109.0
-102.0
-88.0
-75.0
-63.0
-51.0
-36.0
-22.0
-11.0
-2.0
5.0
16.0
31.0
43.0
53.0
55.0
57.0
58.0
58.0
60.0
57.0
56.0
52.0
51.0
49.0
43.0
33.0
24.0
19.0
14.0
10.0
4.0
-3.0
-9.0
-16.0
-22.0
-30.0
-38.0
-45.0
-47.0
-50.0
-56.0
-61.0
-66.0
-69.0
-67.0
-68.0
-70.0
-70.0
-65.0
-56.0
-46.0
-39.0
-31.0
-22.0
-16.0
-9.0
-8.0
-15.0
-28.0
-44.0
-61.0
-78.0
-89.0
-99.0
-105.0
-104.0
-102.0
-105.0
-107.0
-109.0
-109.0
-103.0
-101.0
-101.0
-105.0
-107.0
-108.0
-105.0
-107.0
-112.0
-114.0
-101.0
-58.0
17.0
119.0
243.0
361.0
424.0
407.0
307.0
169.0
27.0
-94.0
-182.0
-229.0
-237.0
-203.0
-162.0
-141.0
-139.0
-151.0
-165.0
-170.0
-169.0
-166.0
-165.0
-168.0
-169.0
-171.0
-173.0
-174.0
-176.0
-174.0
-174.0
-173.0
-169.0
-168.0
-169.0
-169.0
-161.0
-157.0
-145.0
-139.0
-138.0
-135.0
-121.0
-110.0
-100.0
-91.0
-81.0
-70.0
-58.0
-47.0
-39.0
-30.0
-18.0
-3.0
12.0
24.0
36.0
44.0
55.0
61.0
65.0
66.0
65.0
72.0
76.0
76.0
72.0
67.0
63.0
59.0
56.0
52.0
44.0
36.0
25.0
19.0
11.0
2.0
-6.0
-8.0
-12.0
-19.0
-29.0
-41.0
-49.0
-55.0
-59.0
-60.0
-68.0
-75.0
-77.0
-78.0
-82.0
-85.0
-88.0
-91.0
-92.0
-84.0
-75.0
-65.0
-54.0
-44.0
-36.0
-25.0
-20.0
-16.0
-18.0
-21.0
-31.0
-48.0
-67.0
-79.0
-82.0
-89.0
-91.0
-95.0
-99.0
-101.0
-99.0
-93.0
-93.0
-93.0
-93.0
-91.0
-90.0
-91.0
-95.0
-100.0
-102.0
-100.0
-97.0
-95.0
-79.0
-39.0
31.0
132.0
249.0
286.0
405.0
373.0
275.0
153.0
29.0
-79.0
-170.0
-228.0
-251.0
-235.0
-203.0
-171.0
-154.0
-151.0
-156.0
-159.0
-163.0
-165.0
-166.0
-167.0
-167.0
-167.0
-172.0
-175.0
-177.0
-175.0
-172.0
-171.0
-174.0
-178.0
-174.0
-167.0
-164.0
-163.0
-158.0
-156.0
-151.0
-144.0
-136.0
-129.0
-119.0
-111.0
-98.0
-90.0
-85.0
-79.0
-76.0
-62.0
-49.0
-44.0
-26.0
-15.0
-6.0
4.0
14.0
22.0
29.0
34.0
41.0
49.0
54.0
54.0
52.0
49.0
49.0
50.0
47.0
42.0
34.0
29.0
24.0
17.0
8.0
0.0
-2.0
-10.0
-14.0
-25.0
-35.0
-43.0
-49.0
-53.0
-53.0
-58.0
-65.0
-69.0
-74.0
-76.0
-79.0
-82.0
-82.0
-83.0
-82.0
-80.0
-78.0
-76.0
-70.0
-62.0
-49.0
-45.0
-31.0
-28.0
-25.0
-22.0
-19.0
-26.0
-36.0
-51.0
-67.0
-81.0
-93.0
-103.0
-110.0
-115.0
-114.0
-111.0
-109.0
-108.0
-114.0
-118.0
-118.0
-116.0
-117.0
-117.0
-116.0
-115.0
-117.0
-121.0
-128.0
-132.0
-125.0
-93.0
-27.0
63.0
180.0
301.0
387.0
409.0
354.0
251.0
135.0
17.0
-86.0
-170.0
-232.0
-254.0
-244.0
-214.0
-181.0
-172.0
-164.0
-170.0
-181.0
-189.0
-193.0
-193.0
-193.0
-192.0
-195.0
-197.0
-199.0
-199.0
-200.0
-200.0
-203.0
-205.0
-206.0
-206.0
-201.0
-201.0
-204.0
-204.0
-201.0
-196.0
-194.0
-184.0
-180.0
-176.0
-169.0
-157.0
-148.0
-141.0
-131.0
-120.0
-110.0
-98.0
-86.0
-79.0
-70.0
-58.0
-44.0
-31.0
-19.0
-10.0
-4.0
4.0
15.0
22.0
27.0
28.0
36.0
41.0
43.0
40.0
30.0
25.0
24.0
22.0
24.0
19.0
10.0
3.0
-4.0
-8.0
-16.0
-24.0
-30.0
-33.0
-36.0
-39.0
-48.0
-58.0
-67.0
-72.0
-74.0
-75.0
-75.0
-78.0
-86.0
-90.0
-91.0
-86.0
-84.0
-81.0
-77.0
-69.0
-61.0
-53.0
-48.0
-46.0
-43.0
-34.0
-31.0
-29.0
-38.0
-55.0
-73.0
-88.0
-99.0
-102.0
-109.0
-113.0
-116.0
-119.0
-117.0
-119.0
-121.0
-123.0
-125.0
-125.0
-123.0
-120.0
-121.0
-123.0
-126.0
-127.0
-125.0
-127.0
-131.0
-135.0
-122.0
-80.0
-9.0
99.0
137.0
336.0
395.0
368.0
274.0
146.0
18.0
-82.0
-157.0
-215.0
-240.0
-241.0
-215.0
-188.0
-173.0
-168.0
-177.0
-184.0
-187.0
-190.0
-189.0
-189.0
-191.0
-197.0
-200.0
-203.0
-205.0
-202.0
-201.0
-205.0
-208.0
-211.0
-209.0
-207.0
-204.0
-203.0
-202.0
-200.0
-197.0
-192.0
-190.0
-184.0
-179.0
-168.0
-157.0
-150.0
-145.0
-141.0
-133.0
-120.0
-116.0
-90.0
-77.0
-65.0
-55.0
-44.0
-34.0
-22.0
-15.0
-4.0
10.0
21.0
26.0
30.0
32.0
35.0
38.0
39.0
39.0
35.0
30.0
26.0
22.0
16.0
11.0
10.0
4.0
2.0
-2.0
-10.0
-20.0
-30.0
-35.0
-40.0
-44.0
-49.0
-57.0
-62.0
-66.0
-71.0
-74.0
-78.0
-80.0
-79.0
-78.0
-76.0
-74.0
-71.0
-62.0
-50.0
-46.0
-38.0
-35.0
-29.0
-25.0
-27.0
-39.0
-55.0
-74.0
-89.0
-101.0
-109.0
-113.0
-116.0
-118.0
-117.0
-117.0
-118.0
-117.0
-120.0
-117.0
-117.0
-115.0
-117.0
-119.0
-118.0
-112.0
-116.0
-124.0
-127.0
-108.0
-56.0
29.0
141.0
267.0
373.0
425.0
394.0
298.0
171.0
39.0
-78.0
-163.0
-218.0
-233.0
-214.0
-185.0
-162.0
-153.0
-161.0
-165.0
-179.0
-180.0
-178.0
-179.0
-183.0
-187.0
-190.0
-190.0
-188.0
-184.0
-188.0
-190.0
-192.0
-192.0
-191.0
-188.0
-188.0
-183.0
-176.0
-168.0
-165.0
-162.0
-159.0
-155.0
-153.0
-128.0
-114.0
-101.0
-87.0
-73.0
-62.0
-52.0
-42.0
-35.0
-21.0
-6.0
9.0
22.0
30.0
39.0
48.0
59.0
66.0
72.0
72.0
71.0
72.0
73.0
73.0
72.0
66.0
66.0
61.0
52.0
40.0
28.0
22.0
20.0
19.0
18.0
12.0
-1.0
-6.0
-13.0
-22.0
-31.0
-40.0
-46.0
-52.0
-54.0
-57.0
-64.0
-70.0
-75.0
-76.0
-76.0
-74.0
-74.0
-76.0
-78.0
-74.0
-66.0
-54.0
-47.0
-35.0
-27.0
-17.0
-12.0
-12.0
-14.0
-18.0
-26.0
-34.0
-49.0
-66.0
-77.0
-87.0
-94.0
-94.0
-93.0
-89.0
-90.0
-95.0
-97.0
-99.0
-95.0
-93.0
-95.0
-94.0
-90.0
-87.0
-85.0
-88.0
-96.0
-105.0
-106.0
-87.0
-45.0
27.0
117.0
226.0
333.0
406.0
403.0
391.0
219.0
103.0
-5.0
-96.0
-171.0
-225.0
-247.0
-228.0
-193.0
-160.0
-139.0
-138.0
-149.0
-157.0
-161.0
-158.0
-157.0
-160.0
-163.0
-168.0
-173.0
-169.0
-173.0
-177.0
-177.0
-173.0
-168.0
-165.0
-166.0
-166.0
-164.0
-159.0
-152.0
-147.0
-141.0
-135.0
-128.0
-120.0
-113.0
-110.0
-101.0
-88.0
-73.0
-61.0
-52.0
-45.0
-36.0
-24.0
-13.0
-9.0
6.0
15.0
26.0
37.0
44.0
49.0
53.0
58.0
60.0
58.0
57.0
51.0
47.0
46.0
43.0
37.0
28.0
22.0
16.0
10.0
3.0
-5.0
-12.0
-15.0
-16.0
-25.0
-34.0
-44.0
-49.0
-54.0
-60.0
-68.0
-72.0
-75.0
-76.0
-78.0
-80.0
-83.0
-85.0
-84.0
-80.0
-77.0
-72.0
-62.0
-52.0
-43.0
-33.0
-29.0
-25.0
-22.0
-14.0
-9.0
-10.0
-21.0
-40.0
-61.0
-80.0
-87.0
-92.0
-92.0
-90.0
-89.0
-88.0
-89.0
-96.0
-102.0
-102.0
-95.0
-92.0
-90.0
-94.0
-95.0
-96.0
-99.0
-100.0
-110.0
-94.0
-38.0
52.0
167.0
293.0
398.0
427.0
375.0
254.0
108.0
-33.0
-147.0
-226.0
-257.0
-243.0
-207.0
-170.0
-152.0
-150.0
-163.0
-175.0
-184.0
-185.0
-184.0
-180.0
-181.0
-184.0
-188.0
-190.0
-191.0
-193.0
-195.0
-195.0
-193.0
-190.0
-187.0
-189.0
-187.0
-185.0
-179.0
-174.0
-170.0
-166.0
-160.0
-153.0
-145.0
-137.0
-130.0
-127.0
-110.0
-96.0
-85.0
-79.0
-75.0
-66.0
-49.0
-34.0
-24.0
-14.0
-5.0
7.0
18.0
20.0
23.0
26.0
33.0
41.0
47.0
47.0
41.0
36.0
33.0
31.0
30.0
21.0
15.0
7.0
1.0
-2.0
-9.0
-19.0
-28.0
-34.0
-38.0
-40.0
-45.0
-54.0
-66.0
-74.0
-74.0
-76.0
-74.0
-76.0
-81.0
-85.0
-84.0
-82.0
-79.0
-77.0
-67.0
-55.0
-42.0
-35.0
-34.0
-32.0
-28.0
-22.0
-20.0
-25.0
-40.0
-59.0
-75.0
-89.0
-99.0
-106.0
-108.0
-111.0
-107.0
-106.0
-107.0
-110.0
-114.0
-114.0
-113.0
-109.0
-105.0
-104.0
-108.0
-112.0
-113.0
-118.0
-121.0
-122.0
-104.0
-60.0
11.0
106.0
216.0
325.0
397.0
378.0
297.0
167.0
30.0
-78.0
-154.0
-211.0
-238.0
-242.0
-205.0
-172.0
-153.0
-153.0
-164.0
-174.0
-183.0
-181.0
-180.0
-175.0
-174.0
-177.0
-184.0
-186.0
-186.0
-188.0
-190.0
-188.0
-185.0
-181.0
-182.0
-182.0
-183.0
-185.0
-184.0
-167.0
-160.0
-151.0
-143.0
-133.0
-125.0
-119.0
-113.0
-108.0
-96.0
-82.0
-68.0
-54.0
-42.0
-32.0
-20.0
-6.0
10.0
22.0
31.0
40.0
45.0
51.0
57.0
59.0
61.0
68.0
68.0
65.0
55.0
46.0
44.0
44.0
44.0
36.0
28.0
22.0
16.0
10.0
2.0
-6.0
-15.0
-19.0
-20.0
-25.0
-34.0
-44.0
-52.0
-56.0
-56.0
-58.0
-60.0
-67.0
-67.0
-69.0
-69.0
-69.0
-68.0
-65.0
-52.0
-37.0
-27.0
-22.0
-18.0
-17.0
-11.0
-6.0
-3.0
-5.0
-16.0
-33.0
-53.0
-69.0
-82.0
-86.0
-93.0
-89.0
-85.0
-83.0
-85.0
-88.0
-89.0
-89.0
-87.0
-84.0
-83.0
-85.0
-89.0
-89.0
-90.0
-91.0
-100.0
-103.0
-86.0
-43.0
20.0
98.0
185.0
286.0
318.0
404.0
355.0
233.0
89.0
-41.0
-138.0
-202.0
-232.0
-233.0
-206.0
-173.0
-147.0
-138.0
-142.0
-152.0
-161.0
-162.0
-160.0
-155.0
-157.0
-162.0
-165.0
-165.0
-167.0
-169.0
-169.0
-171.0
-169.0
-167.0
-164.0
-165.0
-166.0
-163.0
-157.0
-151.0
-144.0
-142.0
-143.0
-137.0
-131.0
-121.0
-109.0
-100.0
-94.0
-81.0
-71.0
-62.0
-54.0
-49.0
-46.0
-27.0
-12.0
2.0
10.0
17.0
20.0
31.0
43.0
50.0
57.0
57.0
57.0
59.0
65.0
64.0
59.0
55.0
53.0
52.0
50.0
45.0
35.0
25.0
17.0
15.0
12.0
8.0
1.0
-8.0
-15.0
-20.0
-28.0
-36.0
-44.0
-50.0
-53.0
-55.0
-60.0
-68.0
-72.0
-74.0
-70.0
-68.0
-68.0
-73.0
-74.0
-73.0
-69.0
-62.0
-58.0
-46.0
-36.0
-31.0
-22.0
-19.0
-18.0
-21.0
-22.0
-24.0
-33.0
-50.0
-69.0
-86.0
-97.0
-101.0
-104.0
-106.0
-106.0
-102.0
-102.0
-101.0
-104.0
-107.0
-109.0
-109.0
-106.0
-105.0
-108.0
-109.0
-114.0
-117.0
-121.0
-108.0
-68.0
13.0
124.0
254.0
370.0
421.0
378.0
269.0
124.0
-23.0
-133.0
-214.0
-247.0
-235.0
-198.0
-167.0
-159.0
-149.0
-155.0
-162.0
-167.0
-172.0
-175.0
-176.0
-175.0
-175.0
-177.0
-179.0
-179.0
-180.0
-182.0
-186.0
-188.0
-184.0
-179.0
-173.0
-171.0
-170.0
-169.0
-166.0
-156.0
-153.0
-143.0
-136.0
-126.0
-114.0
-103.0
-94.0
-86.0
-72.0
-56.0
-41.0
-30.0
-23.0
-13.0
-3.0
13.0
25.0
36.0
45.0
54.0
62.0
68.0
68.0
67.0
65.0
65.0
68.0
68.0
64.0
60.0
51.0
44.0
39.0
33.0
27.0
23.0
18.0
15.0
11.0
1.0
-8.0
-15.0
-19.0
-23.0
-27.0
-36.0
-42.0
-48.0
-52.0
-53.0
-52.0
-56.0
-56.0
-54.0
-49.0
-44.0
-39.0
-33.0
-23.0
-12.0
-3.0
3.0
3.0
1.0
-4.0
-11.0
-24.0
-42.0
-60.0
-71.0
-79.0
-82.0
-86.0
-89.0
-92.0
-91.0
-88.0
-90.0
-88.0
-90.0
-91.0
-91.0
-86.0
-89.0
-90.0
-90.0
-92.0
-96.0
-99.0
-94.0
-67.0
-6.0
85.0
195.0
316.0
409.0
436.0
384.0
278.0
146.0
103.0
-85.0
-167.0
-214.0
-223.0
-201.0
-167.0
-142.0
-137.0
-141.0
-147.0
-151.0
-155.0
-159.0
-161.0
-161.0
-161.0
-163.0
-165.0
-166.0
-169.0
-170.0
-172.0
-174.0
-176.0
-177.0
-175.0
-173.0
-168.0
-166.0
-168.0
-171.0
-169.0
-162.0
-154.0
-143.0
-136.0
-131.0
-125.0
-116.0
-107.0
-96.0
-88.0
-78.0
-69.0
-59.0
-43.0
-34.0
-25.0
-13.0
-9.0
15.0
28.0
38.0
44.0
50.0
56.0
63.0
71.0
74.0
76.0
75.0
75.0
72.0
68.0
62.0
58.0
53.0
51.0
49.0
44.0
39.0
29.0
24.0
19.0
18.0
14.0
8.0
0.0
-9.0
-16.0
-23.0
-29.0
-36.0
-40.0
-44.0
-43.0
-45.0
-52.0
-59.0
-62.0
-65.0
-64.0
-61.0
-51.0
-41.0
-31.0
-23.0
-15.0
-11.0
-10.0
-6.0
1.0
10.0
13.0
3.0
-13.0
-33.0
-49.0
-62.0
-68.0
-73.0
-79.0
-80.0
-79.0
-78.0
-80.0
-78.0
-82.0
-84.0
-84.0
-79.0
-76.0
-78.0
-81.0
-82.0
-84.0
-86.0
-87.0
-75.0
-37.0
27.0
103.0
199.0
301.0
382.0
396.0
317.0
183.0
36.0
-87.0
-174.0
-221.0
-232.0
-212.0
-183.0
-151.0
-133.0
-130.0
-136.0
-140.0
-153.0
-155.0
-152.0
-150.0
-151.0
-155.0
-163.0
-163.0
-161.0
-159.0
-158.0
-160.0
-163.0
-163.0
-159.0
-155.0
-153.0
-151.0
-146.0
-137.0
-132.0
-125.0
-121.0
-119.0
-116.0
-98.0
-85.0
-76.0
-69.0
-62.0
-54.0
-43.0
-34.0
-26.0
-16.0
-2.0
12.0
22.0
27.0
31.0
34.0
48.0
59.0
71.0
75.0
74.0
73.0
70.0
69.0
67.0
64.0
60.0
57.0
56.0
47.0
44.0
36.0
26.0
22.0
20.0
17.0
11.0
1.0
-12.0
-21.0
-27.0
-31.0
-38.0
-40.0
-45.0
-50.0
-57.0
-63.0
-70.0
-73.0
-72.0
-69.0
-64.0
-61.0
-65.0
-69.0
-70.0
-66.0
-58.0
-48.0
-39.0
-30.0
-24.0
-16.0
-10.0
-4.0
-1.0
-4.0
-5.0
-10.0
-19.0
-34.0
-50.0
-68.0
-72.0
-80.0
-76.0
-72.0
-76.0
-80.0
-83.0
-83.0
-79.0
-78.0
-78.0
-78.0
-80.0
-80.0
-77.0
-81.0
-85.0
-94.0
-96.0
-91.0
-65.0
-12.0
65.0
156.0
264.0
297.0
420.0
405.0
312.0
183.0
46.0
-72.0
-167.0
-224.0
-242.0
-218.0
-180.0
-152.0
-137.0
-140.0
-147.0
-154.0
-157.0
-157.0
-158.0
-159.0
-161.0
-164.0
-165.0
-170.0
-172.0
-169.0
-168.0
-164.0
-162.0
-163.0
-168.0
-169.0
-167.0
-164.0
-156.0
-153.0
-153.0
-151.0
-150.0
-141.0
-133.0
-127.0
-120.0
-112.0
-103.0
-94.0
-87.0
-85.0
-75.0
-71.0
-51.0
-36.0
-26.0
-20.0
-14.0
-7.0
0.0
17.0
30.0
39.0
48.0
52.0
55.0
63.0
64.0
64.0
62.0
63.0
64.0
66.0
61.0
53.0
45.0
39.0
38.0
34.0
31.0
22.0
12.0
2.0
-3.0
-8.0
-15.0
-22.0
-29.0
-34.0
-40.0
-44.0
-51.0
-57.0
-62.0
-63.0
-60.0
-60.0
-61.0
-63.0
-62.0
-57.0
-46.0
-42.0
-28.0
-20.0
-13.0
-5.0
-2.0
-4.0
-9.0
-15.0
-25.0
-39.0
-56.0
-74.0
-85.0
-89.0
-88.0
-90.0
-91.0
-92.0
-92.0
-89.0
-90.0
-91.0
-92.0
-92.0
-91.0
-91.0
-92.0
-96.0
-101.0
-100.0
-85.0
-46.0
20.0
113.0
223.0
337.0
403.0
394.0
305.0
175.0
32.0
-80.0
-169.0
-220.0
-235.0
-214.0
-177.0
-146.0
-138.0
-137.0
-147.0
-150.0
-152.0
-154.0
-156.0
-159.0
-162.0
-165.0
-164.0
-166.0
-166.0
-166.0
-164.0
-165.0
-168.0
-169.0
-169.0
-164.0
-156.0
-149.0
-149.0
-148.0
-141.0
-132.0
-128.0
-115.0
-107.0
-98.0
-88.0
-78.0
-68.0
-58.0
-50.0
-39.0
-24.0
-8.0
5.0
14.0
22.0
34.0
43.0
55.0
62.0
67.0
74.0
77.0
79.0
79.0
75.0
75.0
69.0
68.0
61.0
53.0
41.0
34.0
27.0
22.0
19.0
12.0
9.0
4.0
-3.0
-14.0
-27.0
-38.0
-43.0
-44.0
-46.0
-55.0
-57.0
-57.0
-61.0
-61.0
-62.0
-70.0
-71.0
-70.0
-64.0
-57.0
-50.0
-43.0
-34.0
-23.0
-14.0
-7.0
-6.0
-5.0
-10.0
-13.0
-21.0
-36.0
-51.0
-63.0
-71.0
-77.0
-82.0
-87.0
-88.0
-89.0
-85.0
-83.0
-82.0
-86.0
-89.0
-90.0
-90.0
-91.0
-92.0
-93.0
-94.0
-89.0
-90.0
-85.0
-52.0
11.0
110.0
222.0
330.0
393.0
376.0
286.0
167.0
40.0
3.0
-152.0
-210.0
-232.0
-222.0
-193.0
-167.0
-151.0
-147.0
-147.0
-151.0
-154.0
-159.0
-158.0
-160.0
-161.0
-165.0
-167.0
-169.0
-169.0
-166.0
-164.0
-168.0
-171.0
-173.0
-174.0
-164.0
-162.0
-160.0
-159.0
-157.0
-154.0
-143.0
-136.0
-129.0
-124.0
-116.0
-106.0
-97.0
-92.0
-83.0
-73.0
-62.0
-50.0
-40.0
-31.0
-25.0
-16.0
-3.0
8.0
12.0
26.0
36.0
46.0
55.0
60.0
62.0
58.0
59.0
60.0
62.0
58.0
56.0
49.0
43.0
39.0
35.0
29.0
24.0
18.0
14.0
8.0
-2.0
-13.0
-23.0
-26.0
-32.0
-32.0
-33.0
-41.0
-49.0
-54.0
-58.0
-60.0
-60.0
-61.0
-61.0
-60.0
-58.0
-59.0
-58.0
-52.0
-40.0
-27.0
-17.0
-11.0
-7.0
-5.0
-5.0
-4.0
-5.0
-21.0
-35.0
-50.0
-62.0
-76.0
-86.0
-91.0
-92.0
-92.0
-88.0
-84.0
-85.0
-88.0
-91.0
-91.0
-91.0
-89.0
-89.0
-90.0
-92.0
-92.0
-94.0
-97.0
-89.0
-84.0
13.0
108.0
227.0
337.0
393.0
369.0
275.0
148.0
19.0
-81.0
-151.0
-197.0
-219.0
-209.0
-182.0
-154.0
-142.0
-141.0
-149.0
-155.0
-160.0
-162.0
-162.0
-160.0
-162.0
-165.0
-166.0
-169.0
-168.0
-169.0
-171.0
-176.0
-177.0
-174.0
-170.0
-167.0
-169.0
-169.0
-166.0
-161.0
-156.0
-151.0
-142.0
-135.0
-123.0
-113.0
-103.0
-98.0
-92.0
-89.0
-68.0
-53.0
-38.0
-28.0
-18.0
-6.0
7.0
16.0
26.0
33.0
44.0
54.0
61.0
65.0
63.0
65.0
67.0
69.0
68.0
66.0
62.0
57.0
52.0
45.0
42.0
32.0
28.0
24.0
18.0
9.0
-2.0
-10.0
-13.0
-14.0
-21.0
-26.0
-36.0
-42.0
-44.0
-48.0
-53.0
-56.0
-58.0
-57.0
-54.0
-54.0
-56.0
-56.0
-50.0
-47.0
-27.0
-17.0
-12.0
-6.0
-1.0
1.0
2.0
-10.0
-22.0
-34.0
-45.0
-56.0
-68.0
-81.0
-87.0
-87.0
-89.0
-87.0
-88.0
-88.0
-89.0
-85.0
-84.0
-83.0
-85.0
-85.0
-84.0
-80.0
-79.0
-84.0
-88.0
-79.0
-42.0
24.0
117.0
226.0
337.0
402.0
385.0
287.0
165.0
45.0
-54.0
-131.0
-186.0
-214.0
-212.0
-185.0
-151.0
-141.0
-123.0
-132.0
-141.0
-146.0
-149.0
-148.0
-151.0
-156.0
-159.0
-161.0
-160.0
-157.0
-157.0
-158.0
-162.0
-162.0
-160.0
-158.0
-157.0
-155.0
-152.0
-149.0
-143.0
-139.0
-138.0
-132.0
-123.0
-111.0
-102.0
-93.0
-89.0
-86.0
-77.0
-64.0
-50.0
-39.0
-29.0
-24.0
-15.0
-5.0
8.0
17.0
28.0
40.0
51.0
60.0
62.0
62.0
61.0
60.0
71.0
74.0
73.0
65.0
57.0
52.0
48.0
40.0
33.0
25.0
20.0
19.0
15.0
5.0
-8.0
-15.0
-20.0
-24.0
-29.0
-37.0
-48.0
-56.0
-61.0
-64.0
-66.0
-75.0
-77.0
-77.0
-76.0
-78.0
-84.0
-90.0
-88.0
-81.0
-70.0
-62.0
-57.0
-50.0
-42.0
-30.0
-19.0
-15.0
-13.0
-16.0
-20.0
-27.0
-41.0
-61.0
-77.0
-83.0
-95.0
-95.0
-91.0
-88.0
-87.0
-90.0
-92.0
-95.0
-96.0
-95.0
-98.0
-95.0
-92.0
-92.0
-93.0
-98.0
-102.0
-106.0
-103.0
-84.0
-39.0
26.0
107.0
203.0
236.0
389.0
410.0
346.0
237.0
107.0
-11.0
-104.0
-179.0
-234.0
-250.0
-234.0
-201.0
-172.0
-151.0
-150.0
-156.0
-160.0
-165.0
-165.0
-164.0
-166.0
-168.0
-167.0
-173.0
-175.0
-179.0
-176.0
-173.0
-170.0
-170.0
-174.0
-177.0
-174.0
-168.0
-161.0
-154.0
-155.0
-152.0
-151.0
-144.0
-136.0
-130.0
-122.0
-115.0
-106.0
-95.0
-87.0
-81.0
-77.0
-74.0
-58.0
-44.0
-33.0
-24.0
-17.0
-9.0
-2.0
10.0
18.0
29.0
36.0
44.0
48.0
52.0
50.0
46.0
44.0
45.0
48.0
47.0
41.0
31.0
25.0
21.0
19.0
14.0
6.0
-2.0
-11.0
-17.0
-23.0
-32.0
-39.0
-47.0
-51.0
-54.0
-57.0
-62.0
-68.0
-73.0
-76.0
-76.0
-74.0
-72.0
-73.0
-74.0
-72.0
-68.0
-65.0
-62.0
-48.0
-41.0
-28.0
-19.0
-13.0
-14.0
-18.0
-19.0
-20.0
-29.0
-44.0
-62.0
-77.0
-90.0
-96.0
-101.0
-101.0
-103.0
-103.0
-101.0
-100.0
-101.0
-106.0
-108.0
-109.0
-105.0
-102.0
-103.0
-106.0
-110.0
-115.0
-117.0
-115.0
-95.0
-42.0
38.0
143.0
263.0
361.0
412.0
391.0
305.0
194.0
77.0
-33.0
-129.0
-204.0
-247.0
-244.0
-237.0
-178.0
-154.0
-150.0
-158.0
-168.0
-174.0
-176.0
-180.0
-182.0
-182.0
-181.0
-180.0
-185.0
-190.0
-193.0
-197.0
-194.0
-193.0
-192.0
-195.0
-197.0
-195.0
-194.0
-194.0
-193.0
-192.0
-187.0
-180.0
-173.0
-167.0
-168.0
-163.0
-160.0
-150.0
-137.0
-127.0
-120.0
-110.0
-97.0
-86.0
-76.0
-66.0
-54.0
-41.0
-25.0
-14.0
-4.0
2.0
7.0
8.0
22.0
30.0
35.0
39.0
39.0
40.0
41.0
33.0
29.0
24.0
23.0
22.0
19.0
12.0
3.0
-7.0
-12.0
-14.0
-18.0
-25.0
-34.0
-42.0
-47.0
-53.0
-54.0
-65.0
-68.0
-68.0
-68.0
-69.0
-73.0
-79.0
-83.0
-82.0
-76.0
-68.0
-59.0
-49.0
-42.0
-37.0
-34.0
-30.0
-27.0
-25.0
-26.0
-35.0
-53.0
-76.0
-94.0
-98.0
-107.0
-109.0
-108.0
-109.0
-109.0
-110.0
-115.0
-115.0
-115.0
-114.0
-110.0
-107.0
-108.0
-112.0
-115.0
-118.0
-121.0
-120.0
-117.0
-90.0
-28.0
69.0
189.0
315.0
351.0
415.0
353.0
238.0
103.0
-23.0
-125.0
-199.0
-230.0
-228.0
-194.0
-161.0
-147.0
-147.0
-158.0
-167.0
-175.0
-176.0
-176.0
-174.0
-172.0
-175.0
-182.0
-189.0
-190.0
-192.0
-192.0
-191.0
-192.0
-191.0
-191.0
-189.0
-190.0
-190.0
-189.0
-181.0
-174.0
-167.0
-162.0
-160.0
-155.0
-145.0
-135.0
-123.0
-116.0
-105.0
-93.0
-79.0
-67.0
-59.0
-57.0
-43.0
-28.0
-11.0
3.0
13.0
23.0
30.0
37.0
43.0
46.0
48.0
50.0
54.0
52.0
45.0
39.0
33.0
33.0
34.0
33.0
28.0
20.0
11.0
7.0
4.0
-7.0
-15.0
-19.0
-24.0
-31.0
-40.0
-49.0
-56.0
-59.0
-60.0
-60.0
-64.0
-67.0
-70.0
-70.0
-69.0
-68.0
-62.0
-54.0
-44.0
-38.0
-34.0
-30.0
-29.0
-28.0
-19.0
-14.0
-14.0
-21.0
-35.0
-53.0
-70.0
-84.0
-94.0
-101.0
-104.0
-102.0
-100.0
-99.0
-101.0
-104.0
-109.0
-109.0
-106.0
-104.0
-103.0
-108.0
-111.0
-115.0
-114.0
-108.0
-111.0
-112.0
-105.0
-75.0
-17.0
61.0
161.0
274.0
365.0
405.0
367.0
271.0
151.0
38.0
-60.0
-135.0
-188.0
-214.0
-211.0
-187.0
-162.0
-146.0
-147.0
-151.0
-166.0
-171.0
-171.0
-168.0
-166.0
-166.0
-174.0
-180.0
-180.0
-182.0
-180.0
-174.0
-176.0
-179.0
-178.0
-176.0
-174.0
-169.0
-164.0
-155.0
-147.0
-143.0
-141.0
-138.0
-136.0
-120.0
-106.0
-94.0
-86.0
-73.0
-64.0
-52.0
-39.0
-29.0
-19.0
-11.0
1.0
12.0
19.0
27.0
32.0
40.0
51.0
58.0
64.0
62.0
58.0
57.0
59.0
58.0
55.0
52.0
49.0
44.0
39.0
33.0
25.0
16.0
12.0
10.0
7.0
1.0
-11.0
-22.0
-31.0
-38.0
-47.0
-52.0
-61.0
-66.0
-70.0
-76.0
-81.0
-88.0
-90.0
-88.0
-86.0
-86.0
-88.0
-88.0
-81.0
-73.0
-64.0
-55.0
-46.0
-34.0
-26.0
-19.0
-18.0
-25.0
-33.0
-44.0
-57.0
-73.0
-87.0
-96.0
-99.0
-99.0
-98.0
-98.0
-99.0
-102.0
-100.0
-96.0
-94.0
-99.0
-103.0
-102.0
-101.0
-99.0
-101.0
-102.0
-102.0
-86.0
-41.0
29.0
132.0
252.0
349.0
377.0
311.0
180.0
36.0
-83.0
-115.0
-216.0
-244.0
-241.0
-216.0
-184.0
-161.0
-153.0
-160.0
-166.0
-169.0
-168.0
-169.0
-174.0
-176.0
-177.0
-178.0
-179.0
-180.0
-179.0
-178.0
-174.0
-176.0
-177.0
-177.0
-177.0
-168.0
-157.0
-152.0
-148.0
-147.0
-141.0
-132.0
-128.0
-119.0
-111.0
-101.0
-87.0
-79.0
-72.0
-67.0
-62.0
-49.0
-34.0
-20.0
-10.0
-2.0
8.0
14.0
23.0
26.0
33.0
38.0
45.0
47.0
45.0
41.0
37.0
35.0
31.0
26.0
19.0
15.0
11.0
9.0
-1.0
-11.0
-19.0
-22.0
-27.0
-33.0
-41.0
-53.0
-64.0
-69.0
-70.0
-75.0
-80.0
-83.0
-83.0
-79.0
-84.0
-85.0
-88.0
-90.0
-87.0
-80.0
-75.0
-67.0
-59.0
-50.0
-42.0
-35.0
-27.0
-22.0
-19.0
-17.0
-21.0
-33.0
-51.0
-58.0
-83.0
-90.0
-93.0
-95.0
-101.0
-103.0
-105.0
-104.0
-102.0
-103.0
-105.0
-104.0
-101.0
-98.0
-102.0
-108.0
-109.0
-111.0
-113.0
-117.0
-117.0
-106.0
-72.0
-10.0
14.0
189.0
302.0
376.0
380.0
309.0
188.0
52.0
-67.0
-157.0
-219.0
-248.0
-242.0
-214.0
-182.0
-162.0
-157.0
-163.0
-171.0
-177.0
-176.0
-177.0
-177.0
-177.0
-181.0
-183.0
-190.0
-191.0
-188.0
-187.0
-187.0
-190.0
-193.0
-193.0
-189.0
-187.0
-183.0
-182.0
-177.0
-169.0
-165.0
-160.0
-159.0
-154.0
-144.0
-134.0
-123.0
-116.0
-111.0
-102.0
-98.0
-75.0
-64.0
-56.0
-45.0
-33.0
-21.0
-11.0
-3.0
6.0
18.0
29.0
38.0
42.0
43.0
44.0
43.0
42.0
42.0
39.0
32.0
30.0
24.0
17.0
6.0
2.0
-8.0
-11.0
-14.0
-23.0
-34.0
-43.0
-49.0
-54.0
-57.0
-64.0
-68.0
-70.0
-73.0
-77.0
-81.0
-85.0
-86.0
-82.0
-77.0
-71.0
-63.0
-55.0
-48.0
-40.0
-38.0
-33.0
-30.0
-23.0
-21.0
-28.0
-43.0
-62.0
-82.0
-93.0
-101.0
-103.0
-107.0
-109.0
-108.0
-110.0
-113.0
-114.0
-115.0
-114.0
-112.0
-110.0
-110.0
-116.0
-120.0
-121.0
-121.0
-125.0
-124.0
-104.0
-57.0
15.0
111.0
227.0
342.0
400.0
386.0
290.0
160.0
21.0
-95.0
-181.0
-228.0
-238.0
-217.0
-183.0
-156.0
-149.0
-152.0
-165.0
-169.0
-178.0
-178.0
-174.0
-172.0
-173.0
-174.0
-181.0
-181.0
-182.0
-179.0
-179.0
-181.0
-181.0
-180.0
-172.0
-169.0
-168.0
-169.0
-164.0
-157.0
-147.0
-140.0
-138.0
-129.0
-127.0
-109.0
-96.0
-87.0
-77.0
-68.0
-57.0
-47.0
-39.0
-35.0
-19.0
-6.0
5.0
17.0
26.0
31.0
38.0
45.0
52.0
58.0
57.0
60.0
56.0
53.0
52.0
50.0
37.0
32.0
29.0
25.0
22.0
13.0
0.0
-7.0
-12.0
-11.0
-16.0
-23.0
-31.0
-39.0
-52.0
-61.0
-69.0
-77.0
-83.0
-81.0
-81.0
-84.0
-86.0
-92.0
-95.0
-97.0
-95.0
-89.0
-91.0
-93.0
-93.0
-88.0
-79.0
-69.0
-59.0
-49.0
-40.0
-31.0
-29.0
-27.0
-34.0
-43.0
-52.0
-63.0
-73.0
-83.0
-96.0
-109.0
-112.0
-113.0
-111.0
-109.0
-107.0
-107.0
-105.0
-101.0
-104.0
-108.0
-111.0
-114.0
-113.0
-110.0
-109.0
-113.0
-120.0
-124.0
-105.0
-57.0
24.0
128.0
245.0
352.0
398.0
348.0
322.0
96.0
-34.0
-135.0
-209.0
-253.0
-258.0
-229.0
-193.0
-163.0
-157.0
-161.0
-174.0
-180.0
-183.0
-182.0
-183.0
-185.0
-187.0
-188.0
-188.0
-189.0
-191.0
-196.0
-194.0
-195.0
-188.0
-184.0
-185.0
-182.0
-176.0
-172.0
-169.0
-166.0
-161.0
-153.0
-142.0
-132.0
-126.0
-121.0
-113.0
-106.0
-95.0
-87.0
-80.0
-69.0
-56.0
-43.0
-35.0
-27.0
-23.0
-8.0
3.0
14.0
22.0
25.0
26.0
33.0
35.0
34.0
28.0
27.0
24.0
19.0
12.0
2.0
-8.0
-11.0
-16.0
-19.0
-25.0
-35.0
-43.0
-50.0
-57.0
-61.0
-74.0
-79.0
-83.0
-86.0
-87.0
-93.0
-99.0
-104.0
-105.0
-104.0
-102.0
-104.0
-101.0
-95.0
-87.0
-79.0
-72.0
-65.0
-56.0
-46.0
-37.0
-33.0
-35.0
-40.0
-41.0
-54.0
-67.0
-87.0
-101.0
-109.0
-112.0
-114.0
-116.0
-118.0
-119.0
-119.0
-116.0
-116.0
-115.0
-119.0
-121.0
-121.0
-119.0
-119.0
-119.0
-123.0
-129.0
-134.0
-127.0
-123.0
-53.0
24.0
110.0
209.0
311.0
376.0
373.0
289.0
160.0
25.0
-96.0
-190.0
-245.0
-258.0
-233.0
-197.0
-172.0
-164.0
-169.0
-177.0
-184.0
-188.0
-191.0
-192.0
-194.0
-196.0
-199.0
-201.0
-201.0
-203.0
-202.0
-203.0
-203.0
-202.0
-203.0
-203.0
-201.0
-196.0
-195.0
-193.0
-191.0
-188.0
-180.0
-173.0
-165.0
-161.0
-156.0
-150.0
-142.0
-139.0
-128.0
-118.0
-109.0
-95.0
-82.0
-72.0
-62.0
-55.0
-47.0
-34.0
-19.0
-11.0
-2.0
5.0
11.0
18.0
21.0
23.0
26.0
27.0
29.0
30.0
28.0
22.0
19.0
7.0
5.0
3.0
-2.0
-6.0
-17.0
-29.0
-32.0
-37.0
-45.0
-51.0
-57.0
-62.0
-66.0
-73.0
-78.0
-84.0
-88.0
-90.0
-89.0
-85.0
-88.0
-94.0
-99.0
-100.0
-90.0
-82.0
-75.0
-68.0
-59.0
-52.0
-45.0
-42.0
-42.0
-41.0
-39.0
-40.0
-49.0
-65.0
-87.0
-104.0
-114.0
-117.0
-116.0
-116.0
-117.0
-117.0
-119.0
-117.0
-116.0
-120.0
-119.0
-119.0
-116.0
-116.0
-116.0
-118.0
-123.0
-127.0
-126.0
-118.0
-90.0
-35.0
47.0
153.0
269.0
359.0
382.0
309.0
183.0
45.0
-74.0
-159.0
-216.0
-229.0
-239.0
-211.0
-179.0
-160.0
-158.0
-165.0
-172.0
-179.0
-182.0
-182.0
-182.0
-181.0
-182.0
-185.0
-189.0
-194.0
-195.0
-194.0
-189.0
-188.0
-188.0
-188.0
-186.0
-183.0
-182.0
-179.0
-174.0
-166.0
-157.0
-149.0
-143.0
-138.0
-130.0
-120.0
-108.0
-100.0
-87.0
-75.0
-66.0
-54.0
-48.0
-38.0
-28.0
-14.0
0.0
10.0
15.0
21.0
25.0
28.0
40.0
43.0
44.0
44.0
43.0
42.0
37.0
29.0
20.0
15.0
13.0
12.0
7.0
-2.0
-11.0
-18.0
-25.0
-28.0
-36.0
-42.0
-51.0
-54.0
-58.0
-65.0
-68.0
-81.0
-86.0
-87.0
-84.0
-85.0
-91.0
-97.0
-99.0
-100.0
-95.0
-88.0
-82.0
-73.0
-67.0
-59.0
-53.0
-51.0
-48.0
-43.0
-38.0
-34.0
-39.0
-55.0
-73.0
-78.0
-100.0
-106.0
-112.0
-114.0
-120.0
-119.0
-119.0
-120.0
-123.0
-125.0
-126.0
-125.0
-120.0
-119.0
-121.0
-124.0
-128.0
-128.0
-129.0
-133.0
-134.0
-118.0
-81.0
-16.0
7.0
165.0
274.0
361.0
387.0
329.0
209.0
66.0
-64.0
-169.0
-230.0
-250.0
-231.0
-198.0
-172.0
-165.0
-169.0
-182.0
-189.0
-194.0
-192.0
-188.0
-188.0
-191.0
-197.0
-199.0
-205.0
-207.0
-202.0
-203.0
-205.0
-208.0
-211.0
-210.0
-209.0
-210.0
-208.0
-204.0
-197.0
-192.0
-189.0
-188.0
-183.0
-176.0
-167.0
-157.0
-148.0
-141.0
-135.0
-125.0
-121.0
-102.0
-92.0
-81.0
-69.0
-55.0
-44.0
-36.0
-27.0
-22.0
-12.0
-1.0
12.0
23.0
27.0
29.0
30.0
31.0
33.0
31.0
29.0
27.0
23.0
21.0
17.0
17.0
5.0
-4.0
-7.0
-9.0
-13.0
-18.0
-27.0
-36.0
-44.0
-46.0
-50.0
-53.0
-59.0
-64.0
-73.0
-77.0
-81.0
-83.0
-84.0
-82.0
-83.0
-85.0
-87.0
-88.0
-87.0
-76.0
-64.0
-53.0
-49.0
-45.0
-42.0
-36.0
-35.0
-38.0
-44.0
-56.0
-71.0
-84.0
-101.0
-111.0
-119.0
-122.0
-121.0
-116.0
-112.0
-110.0
-112.0
-115.0
-116.0
-117.0
-119.0
-117.0
-114.0
-111.0
-111.0
-117.0
-128.0
-129.0
-111.0
-71.0
-6.0
80.0
183.0
292.0
360.0
350.0
247.0
102.0
-38.0
-141.0
-201.0
-230.0
-241.0
-233.0
-227.0
-182.0
-164.0
-162.0
-168.0
-179.0
-183.0
-181.0
-185.0
-187.0
-189.0
-191.0
-187.0
-185.0
-183.0
-188.0
-192.0
-194.0
-191.0
-188.0
-185.0
-183.0
-178.0
-176.0
-170.0
-167.0
-161.0
-152.0
-141.0
-131.0
-121.0
-114.0
-109.0
-100.0
-87.0
-76.0
-64.0
-55.0
-44.0
-34.0
-24.0
-15.0
-8.0
0.0
12.0
23.0
30.0
32.0
32.0
33.0
34.0
32.0
28.0
24.0
21.0
24.0
18.0
10.0
-2.0
-10.0
-15.0
-18.0
-23.0
-33.0
-39.0
-46.0
-52.0
-55.0
-64.0
-70.0
-77.0
-83.0
-83.0
-89.0
-96.0
-99.0
-110.0
-111.0
-108.0
-104.0
-105.0
-109.0
-112.0
-109.0
-104.0
-93.0
-83.0
-73.0
-63.0
-54.0
-47.0
-41.0
-41.0
-42.0
-41.0
-47.0
-58.0
-77.0
-97.0
-108.0
-111.0
-116.0
-113.0
-113.0
-110.0
-111.0
-107.0
-110.0
-112.0
-114.0
-114.0
-109.0
-107.0
-105.0
-106.0
-112.0
-117.0
-116.0
-112.0
-83.0
-21.0
65.0
183.0
301.0
388.0
407.0
343.0
233.0
109.0
-7.0
-107.0
-186.0
-238.0
-252.0
-238.0
-206.0
-177.0
-162.0
-158.0
-161.0
-166.0
-171.0
-176.0
-179.0
-181.0
-180.0
-178.0
-180.0
-183.0
-187.0
-189.0
-192.0
-190.0
-188.0
-187.0
-185.0
-185.0
-182.0
-183.0
-180.0
-176.0
-167.0
-160.0
-151.0
-145.0
-143.0
-138.0
-132.0
-122.0
-116.0
-109.0
-102.0
-93.0
-83.0
-71.0
-67.0
-57.0
-49.0
-38.0
-25.0
-16.0
-10.0
-7.0
0.0
2.0
14.0
20.0
21.0
21.0
24.0
23.0
19.0
13.0
4.0
1.0
-1.0
-3.0
-11.0
-21.0
-29.0
-32.0
-41.0
-47.0
-50.0
-56.0
-66.0
-74.0
-81.0
-88.0
-90.0
-95.0
-97.0
-99.0
-97.0
-97.0
-100.0
-104.0
-107.0
-106.0
-100.0
-92.0
-84.0
-74.0
-70.0
-62.0
-58.0
-53.0
-50.0
-49.0
-46.0
-48.0
-59.0
-75.0
-97.0
-114.0
-122.0
-125.0
-126.0
-127.0
-127.0
-129.0
-130.0
-131.0
-132.0
-134.0
-133.0
-131.0
-129.0
-130.0
-132.0
-135.0
-140.0
-139.0
-139.0
-129.0
-96.0
-30.0
62.0
178.0
298.0
372.0
372.0
289.0
161.0
27.0
-91.0
-182.0
-242.0
-261.0
-239.0
-204.0
-179.0
-172.0
-177.0
-187.0
-191.0
-199.0
-200.0
-199.0
-199.0
-199.0
-204.0
-210.0
-213.0
-217.0
-215.0
-214.0
-213.0
-214.0
-213.0
-214.0
-214.0
-214.0
-215.0
-210.0
-202.0
-194.0
-187.0
-183.0
-179.0
-177.0
-167.0
-156.0
-147.0
-135.0
-121.0
-110.0
-98.0
-87.0
-80.0
-70.0
-56.0
-42.0
-30.0
-20.0
-12.0
-3.0
3.0
9.0
18.0
20.0
24.0
27.0
28.0
26.0
24.0
12.0
8.0
5.0
5.0
0.0
-8.0
-17.0
-23.0
-25.0
-29.0
-35.0
-41.0
-50.0
-55.0
-60.0
-67.0
-74.0
-81.0
-84.0
-85.0
-84.0
-84.0
-87.0
-95.0
-96.0
-93.0
-86.0
-79.0
-68.0
-56.0
-47.0
-42.0
-40.0
-39.0
-36.0
-35.0
-43.0
-58.0
-78.0
-93.0
-107.0
-115.0
-118.0
-116.0
-114.0
-113.0
-110.0
-110.0
-113.0
-114.0
-116.0
-114.0
-113.0
-111.0
-113.0
-117.0
-120.0
-125.0
-126.0
-104.0
-58.0
17.0
117.0
232.0
339.0
399.0
369.0
275.0
141.0
10.0
-97.0
-177.0
-224.0
-234.0
-233.0
-188.0
-162.0
-149.0
-151.0
-159.0
-169.0
-175.0
-179.0
-180.0
-177.0
-177.0
-180.0
-181.0
-183.0
-185.0
-189.0
-192.0
-195.0
-194.0
-191.0
-185.0
-186.0
-185.0
-185.0
-184.0
-178.0
-172.0
-167.0
-159.0
-151.0
-141.0
-131.0
-125.0
-119.0
-110.0
-99.0
-84.0
-70.0
-57.0
-48.0
-38.0
-27.0
-11.0
1.0
11.0
22.0
33.0
38.0
45.0
47.0
47.0
48.0
53.0
58.0
60.0
55.0
48.0
42.0
37.0
32.0
33.0
29.0
25.0
19.0
14.0
9.0
2.0
-6.0
-15.0
-19.0
-22.0
-28.0
-37.0
-45.0
-48.0
-56.0
-57.0
-58.0
-62.0
-65.0
-67.0
-67.0
-70.0
-70.0
-66.0
-58.0
-46.0
-35.0
-26.0
-25.0
-23.0
-19.0
-14.0
-9.0
-12.0
-19.0
-32.0
-50.0
-64.0
-69.0
-89.0
-95.0
-97.0
-93.0
-91.0
-91.0
-95.0
-100.0
-99.0
-99.0
-96.0
-94.0
-94.0
-96.0
-96.0
-98.0
-100.0
-105.0
-109.0
-101.0
-68.0
-4.0
89.0
199.0
235.0
397.0
415.0
349.0
244.0
122.0
10.0
-80.0
-149.0
-200.0
-218.0
-208.0
-174.0
-145.0
-130.0
-138.0
-151.0
-161.0
-167.0
-164.0
-161.0
-158.0
-160.0
-168.0
-171.0
-170.0
-173.0
-175.0
-178.0
-180.0
-179.0
-176.0
-177.0
-177.0
-178.0
-176.0
-169.0
-163.0
-158.0
-153.0
-153.0
-151.0
-142.0
-130.0
-119.0
-109.0
-99.0
-86.0
-73.0
-62.0
-58.0
-46.0
-35.0
-19.0
0.0
14.0
24.0
28.0
30.0
35.0
46.0
56.0
63.0
68.0
69.0
74.0
75.0
72.0
66.0
63.0
61.0
63.0
61.0
56.0
46.0
44.0
29.0
26.0
24.0
20.0
10.0
-2.0
-8.0
-13.0
-20.0
-27.0
-36.0
-43.0
-48.0
-52.0
-57.0
-63.0
-68.0
-76.0
-77.0
-76.0
-74.0
-75.0
-78.0
-78.0
-77.0
-62.0
-52.0
-45.0
-38.0
-30.0
-20.0
-14.0
-12.0
-15.0
-16.0
-19.0
-23.0
-38.0
-56.0
-73.0
-81.0
-86.0
-86.0
-85.0
-85.0
-88.0
-88.0
-87.0
-84.0
-85.0
-87.0
-89.0
-90.0
-87.0
-84.0
-82.0
-84.0
-89.0
-92.0
-94.0
-88.0
-68.0
-19.0
54.0
151.0
262.0
362.0
417.0
388.0
293.0
176.0
54.0
-50.0
-134.0
-158.0
-238.0
-242.0
-211.0
-175.0
-147.0
-139.0
-141.0
-147.0
-152.0
-157.0
-156.0
-156.0
-158.0
-155.0
-156.0
-160.0
-165.0
-169.0
-166.0
-162.0
-159.0
-159.0
-161.0
-161.0
-158.0
-152.0
-146.0
-143.0
-139.0
-136.0
-129.0
-120.0
-117.0
-117.0
-114.0
-106.0
-89.0
-74.0
-64.0
-61.0
-56.0
-50.0
-41.0
-29.0
-17.0
-7.0
3.0
12.0
23.0
27.0
39.0
44.0
49.0
57.0
65.0
69.0
66.0
63.0
61.0
59.0
61.0
64.0
59.0
53.0
44.0
38.0
32.0
29.0
23.0
16.0
9.0
8.0
0.0
-8.0
-11.0
-28.0
-35.0
-39.0
-42.0
-45.0
-51.0
-60.0
-65.0
-67.0
-67.0
-65.0
-66.0
-65.0
-62.0
-62.0
-62.0
-62.0
-62.0
-53.0
-42.0
-29.0
-21.0
-19.0
-14.0
-11.0
0.0
4.0
2.0
-7.0
-21.0
-36.0
-50.0
-65.0
-76.0
-82.0
-81.0
-76.0
-73.0
-76.0
-80.0
-83.0
-83.0
-81.0
-81.0
-84.0
-93.0
-107.0
-128.0
-161.0
-172.0
-183.0
-113.0
18.0
176.0
317.0
408.0
443.0
415.0
339.0
206.0
44.0
-122.0
-252.0
-321.0
-321.0
-282.0
-230.0
-183.0
-156.0
-143.0
-136.0
-142.0
-145.0
-152.0
-153.0
-156.0
-154.0
-154.0
-158.0
-160.0
-160.0
-160.0
-164.0
-166.0
-169.0
-168.0
-170.0
-162.0
-160.0
-159.0
-159.0
-161.0
-159.0
-149.0
-146.0
-139.0
-134.0
-129.0
-122.0
-118.0
-108.0
-102.0
-95.0
-84.0
-70.0
-60.0
-52.0
-47.0
-40.0
-31.0
-17.0
-9.0
-1.0
9.0
18.0
25.0
27.0
26.0
27.0
30.0
33.0
34.0
29.0
23.0
20.0
5.0
1.0
-3.0
-13.0
-22.0
-31.0
-41.0
-46.0
-51.0
-62.0
-68.0
-70.0
-71.0
-71.0
-75.0
-79.0
-82.0
-82.0
-81.0
-79.0
-78.0
-74.0
-69.0
-64.0
-65.0
-69.0
-70.0
-65.0
-53.0
-41.0
-32.0
-27.0
-25.0
-23.0
-16.0
-14.0
-10.0
-13.0
-17.0
-26.0
-41.0
-61.0
-77.0
-90.0
-97.0
-99.0
-92.0
-91.0
-92.0
-93.0
-98.0
-97.0
-95.0
-94.0
-94.0
-95.0
-95.0
-94.0
-96.0
-99.0
-102.0
-105.0
-103.0
-77.0
-25.0
45.0
133.0
234.0
335.0
411.0
417.0
347.0
230.0
99.0
60.0
-116.0
-194.0
-230.0
-225.0
-188.0
-150.0
-130.0
-135.0
-148.0
-163.0
-166.0
-166.0
-165.0
-163.0
-169.0
-175.0
-177.0
-177.0
-179.0
-180.0
-183.0
-183.0
-185.0
-184.0
-183.0
-187.0
-186.0
-182.0
-177.0
-173.0
-171.0
-171.0
-169.0
-164.0
-155.0
-145.0
-139.0
-127.0
-116.0
-105.0
-93.0
-84.0
-77.0
-66.0
-53.0
-35.0
-22.0
-11.0
-2.0
1.0
18.0
32.0
40.0
48.0
54.0
60.0
67.0
68.0
69.0
66.0
63.0
65.0
66.0
66.0
60.0
51.0
43.0
39.0
36.0
31.0
25.0
14.0
7.0
0.0
-2.0
-16.0
-27.0
-33.0
-34.0
-36.0
-39.0
-46.0
-52.0
-56.0
-56.0
-54.0
-56.0
-59.0
-56.0
-50.0
-40.0
-34.0
-30.0
-21.0
-14.0
-6.0
0.0
6.0
1.0
0.0
-16.0
-31.0
-47.0
-64.0
-75.0
-80.0
-85.0
-85.0
-85.0
-88.0
-90.0
-89.0
-85.0
-85.0
-86.0
-89.0
-88.0
-90.0
-89.0
-89.0
-91.0
-97.0
-101.0
-97.0
-93.0
-8.0
89.0
217.0
346.0
422.0
404.0
303.0
156.0
7.0
-108.0
-191.0
-226.0
-217.0
-181.0
-145.0
-129.0
-135.0
-148.0
-155.0
-158.0
-158.0
-160.0
-159.0
-162.0
-164.0
-170.0
-173.0
-174.0
-172.0
-170.0
-171.0
-174.0
-177.0
-178.0
-176.0
-173.0
-172.0
-167.0
-161.0
-153.0
-147.0
-145.0
-142.0
-133.0
-119.0
-104.0
-90.0
-81.0
-72.0
-69.0
-50.0
-37.0
-24.0
-11.0
3.0
15.0
24.0
32.0
34.0
42.0
50.0
60.0
64.0
63.0
61.0
56.0
54.0
51.0
48.0
42.0
41.0
40.0
38.0
28.0
23.0
6.0
-2.0
-5.0
-9.0
-16.0
-25.0
-34.0
-43.0
-49.0
-58.0
-63.0
-66.0
-64.0
-60.0
-63.0
-68.0
-76.0
-79.0
-74.0
-69.0
-60.0
-51.0
-40.0
-32.0
-29.0
-21.0
-16.0
-10.0
-2.0
-2.0
-6.0
-19.0
-43.0
-64.0
-76.0
-83.0
-85.0
-85.0
-86.0
-87.0
-87.0
-87.0
-89.0
-94.0
-95.0
-94.0
-90.0
-90.0
-90.0
-92.0
-96.0
-96.0
-93.0
-90.0
-85.0
-61.0
-11.0
61.0
136.0
233.0
331.0
390.0
371.0
273.0
129.0
-6.0
-111.0
-183.0
-221.0
-230.0
-211.0
-179.0
-153.0
-139.0
-137.0
-146.0
-154.0
-158.0
-159.0
-157.0
-155.0
-154.0
-159.0
-166.0
-169.0
-171.0
-170.0
-167.0
-164.0
-163.0
-163.0
-162.0
-161.0
-155.0
-156.0
-152.0
-147.0
-141.0
-132.0
-130.0
-124.0
-117.0
-110.0
-99.0
-89.0
-79.0
-73.0
-64.0
-52.0
-39.0
-27.0
-15.0
-4.0
8.0
17.0
24.0
34.0
40.0
48.0
57.0
66.0
72.0
72.0
70.0
69.0
62.0
60.0
57.0
54.0
53.0
49.0
44.0
30.0
18.0
9.0
6.0
3.0
0.0
-10.0
-20.0
-28.0
-35.0
-41.0
-48.0
-53.0
-57.0
-60.0
-64.0
-69.0
-71.0
-73.0
-73.0
-69.0
-68.0
-69.0
-71.0
-70.0
-65.0
-54.0
-44.0
-32.0
-23.0
-14.0
-10.0
-1.0
2.0
-2.0
-8.0
-18.0
-28.0
-43.0
-60.0
-73.0
-79.0
-82.0
-78.0
-79.0
-80.0
-79.0
-77.0
-74.0
-74.0
-76.0
-79.0
-81.0
-81.0
-81.0
-79.0
-79.0
-86.0
-89.0
-83.0
-58.0
-4.0
83.0
192.0
309.0
396.0
410.0
402.0
222.0
84.0
-35.0
-124.0
-191.0
-231.0
-237.0
-213.0
-180.0
-150.0
-139.0
-139.0
-144.0
-148.0
-152.0
-155.0
-153.0
-153.0
-154.0
-156.0
-157.0
-159.0
-163.0
-162.0
-162.0
-160.0
-163.0
-163.0
-160.0
-155.0
-150.0
-145.0
-148.0
-143.0
-139.0
-131.0
-123.0
-115.0
-110.0
-101.0
-93.0
-84.0
-77.0
-70.0
-61.0
-52.0
-39.0
-31.0
-24.0
-21.0
-11.0
-4.0
12.0
25.0
36.0
49.0
61.0
68.0
75.0
80.0
84.0
88.0
87.0
83.0
74.0
62.0
48.0
33.0
21.0
10.0
-3.0
-17.0
-31.0
-38.0
-40.0
-47.0
-54.0
-60.0
-67.0
-65.0
-72.0
-80.0
-93.0
-102.0
-108.0
-106.0
-104.0
-102.0
-101.0
-102.0
-103.0
-100.0
-98.0
-97.0
-96.0
-100.0
-97.0
-94.0
-98.0
-100.0
-80.0
-44.0
18.0
105.0
212.0
323.0
405.0
428.0
383.0
280.0
157.0
41.0
-64.0
-155.0
-208.0
-222.0
-198.0
-169.0
-153.0
-152.0
-162.0
-171.0
-176.0
-180.0
-182.0
-186.0
-188.0
-188.0
-192.0
-198.0
-202.0
-206.0
-209.0
-210.0
-215.0
-218.0
-218.0
-219.0
-215.0
-217.0
-220.0
-222.0
-219.0
-212.0
-206.0
-201.0
-195.0
-191.0
-181.0
-177.0
-160.0
-152.0
-141.0
-129.0
-116.0
-103.0
-93.0
-83.0
-72.0
-59.0
-47.0
-34.0
-25.0
-21.0
-21.0
-16.0
-14.0
-15.0
-19.0
-23.0
-25.0
-31.0
-34.0
-42.0
-46.0
-54.0
-58.0
-60.0
-66.0
-70.0
-74.0
-78.0
-84.0
-93.0
-100.0
-103.0
-104.0
-106.0
-106.0
-111.0
-119.0
-120.0
-118.0
-118.0
-116.0
-119.0
-118.0
-113.0
-112.0
-111.0
-116.0
-121.0
-118.0
-111.0
-108.0
-111.0
-116.0
-113.0
-115.0
-117.0
-117.0
-115.0
-113.0
-107.0
-107.0
-110.0
-112.0
-114.0
-112.0
-106.0
-104.0
-100.0
-99.0
-97.0
-95.0
-83.0
-79.0
-73.0
-65.0
-58.0
-53.0
-50.0
-50.0
-57.0
-67.0
-82.0
-98.0
-112.0
-122.0
-122.0
-120.0
-117.0
-118.0
-122.0
-123.0
-120.0
-115.0
-113.0
-119.0
-120.0
-125.0
-125.0
-120.0
-121.0
-123.0
-127.0
-121.0
-89.0
-34.0
50.0
163.0
283.0
373.0
393.0
337.0
231.0
113.0
1.0
-98.0
-180.0
-229.0
-238.0
-215.0
-181.0
-171.0
-164.0
-176.0
-185.0
-190.0
-186.0
-186.0
-189.0
-195.0
-199.0
-202.0
-203.0
-200.0
-202.0
-202.0
-202.0
-203.0
-202.0
-201.0
-204.0
-203.0
-199.0
-193.0
-188.0
-186.0
-187.0
-185.0
-181.0
-172.0
-165.0
-159.0
-154.0
-147.0
-141.0
-132.0
-125.0
-116.0
-108.0
-94.0
-81.0
-71.0
-63.0
-56.0
-51.0
-43.0
-29.0
-18.0
-10.0
-5.0
5.0
8.0
21.0
24.0
30.0
36.0
42.0
46.0
47.0
42.0
36.0
32.0
30.0
29.0
24.0
19.0
9.0
0.0
-7.0
-14.0
-21.0
-31.0
-36.0
-37.0
-42.0
-45.0
-48.0
-61.0
-68.0
-67.0
-66.0
-66.0
-65.0
-67.0
-68.0
-69.0
-68.0
-65.0
-57.0
-51.0
-41.0
-32.0
-27.0
-27.0
-29.0
-25.0
-19.0
-18.0
-24.0
-35.0
-54.0
-61.0
-86.0
-97.0
-105.0
-107.0
-108.0
-109.0
-107.0
-108.0
-111.0
-116.0
-117.0
-112.0
-108.0
-106.0
-105.0
-109.0
-109.0
-109.0
-108.0
-110.0
-112.0
-102.0
-64.0
4.0
30.0
220.0
341.0
424.0
446.0
398.0
297.0
176.0
50.0
-59.0
-148.0
-206.0
-216.0
-187.0
-152.0
-133.0
-135.0
-146.0
-162.0
-170.0
-170.0
-167.0
-164.0
-166.0
-172.0
-176.0
-182.0
-185.0
-186.0
-188.0
-193.0
-190.0
-186.0
-187.0
-190.0
-193.0
-190.0
-183.0
-176.0
-170.0
-166.0
-160.0
-152.0
-144.0
-135.0
-127.0
-120.0
-107.0
-95.0
-82.0
-78.0
-64.0
-54.0
-43.0
-27.0
-14.0
-5.0
2.0
10.0
22.0
28.0
36.0
45.0
48.0
51.0
54.0
54.0
51.0
45.0
39.0
37.0
37.0
36.0
34.0
25.0
22.0
11.0
6.0
1.0
-6.0
-12.0
-17.0
-22.0
-27.0
-35.0
-43.0
-51.0
-55.0
-57.0
-56.0
-61.0
-67.0
-69.0
-70.0
-68.0
-69.0
-69.0
-64.0
-55.0
-44.0
-40.0
-29.0
-30.0
-26.0
-19.0
-10.0
-7.0
-10.0
-19.0
-28.0
-38.0
-50.0
-61.0
-74.0
-85.0
-91.0
-92.0
-91.0
-91.0
-93.0
-93.0
-93.0
-90.0
-83.0
-84.0
-85.0
-90.0
-92.0
-88.0
-80.0
-81.0
-85.0
-87.0
-77.0
-50.0
2.0
68.0
148.0
246.0
343.0
396.0
369.0
257.0
118.0
-10.0
-104.0
-161.0
-191.0
-208.0
-197.0
-192.0
-145.0
-125.0
-121.0
-131.0
-135.0
-137.0
-138.0
-136.0
-139.0
-145.0
-153.0
-149.0
-145.0
-144.0
-143.0
-149.0
-152.0
-152.0
-151.0
-149.0
-147.0
-143.0
-138.0
-130.0
-128.0
-122.0
-118.0
-114.0
-106.0
-96.0
-86.0
-78.0
-68.0
-57.0
-46.0
-34.0
-23.0
-16.0
-8.0
2.0
14.0
23.0
31.0
38.0
47.0
57.0
68.0
80.0
84.0
85.0
85.0
87.0
90.0
90.0
90.0
88.0
85.0
80.0
76.0
67.0
60.0
52.0
50.0
50.0
47.0
40.0
28.0
18.0
13.0
11.0
7.0
-3.0
-11.0
-18.0
-21.0
-28.0
-34.0
-43.0
-50.0
-54.0
-55.0
-51.0
-52.0
-52.0
-55.0
-57.0
-55.0
-49.0
-43.0
-35.0
-29.0
-19.0
-11.0
-4.0
4.0
8.0
14.0
21.0
25.0
24.0
6.0
-13.0
-29.0
-41.0
-44.0
-47.0
-52.0
-57.0
-60.0
-66.0
-62.0
-61.0
-60.0
-60.0
-57.0
-56.0
-56.0
-58.0
-61.0
-59.0
-58.0
-56.0
-61.0
-67.0
-68.0
-22.0
48.0
146.0
259.0
367.0
436.0
437.0
360.0
241.0
108.0
-19.0
-122.0
-195.0
-221.0
-203.0
-167.0
-134.0
-113.0
-111.0
-118.0
-126.0
-131.0
-132.0
-132.0
-133.0
-138.0
-143.0
-147.0
-147.0
-143.0
-141.0
-146.0
-145.0
-146.0
-142.0
-142.0
-139.0
-140.0
-136.0
-128.0
-122.0
-120.0
-118.0
-114.0
-106.0
-94.0
-83.0
-76.0
-68.0
-65.0
-50.0
-41.0
-32.0
-24.0
-14.0
-1.0
8.0
17.0
23.0
29.0
37.0
47.0
54.0
61.0
63.0
63.0
64.0
59.0
51.0
48.0
47.0
45.0
41.0
34.0
30.0
13.0
6.0
0.0
-7.0
-16.0
-24.0
-29.0
-35.0
-43.0
-52.0
-60.0
-64.0
-65.0
-65.0
-69.0
-74.0
-74.0
-73.0
-70.0
-68.0
-64.0
-58.0
-45.0
-35.0
-31.0
-24.0
-19.0
-11.0
-2.0
4.0
1.0
-7.0
-18.0
-35.0
-52.0
-70.0
-83.0
-94.0
-94.0
-92.0
-93.0
-96.0
-98.0
-103.0
-100.0
-97.0
-95.0
-96.0
-98.0
-99.0
-103.0
-106.0
-107.0
-113.0
-117.0
-106.0
-75.0
-23.0
51.0
144.0
254.0
352.0
399.0
363.0
261.0
131.0
2.0
-107.0
-191.0
-244.0
-257.0
-230.0
-186.0
-154.0
-146.0
-157.0
-171.0
-176.0
-175.0
-171.0
-170.0
-173.0
-178.0
-179.0
-182.0
-185.0
-189.0
-192.0
-188.0
-186.0
-186.0
-190.0
-191.0
-189.0
-183.0
-175.0
-174.0
-170.0
-166.0
-163.0
-149.0
-142.0
-136.0
-126.0
-116.0
-104.0
-92.0
-85.0
-83.0
-73.0
-60.0
-45.0
-30.0
-17.0
-6.0
4.0
13.0
21.0
28.0
35.0
41.0
49.0
55.0
59.0
58.0
53.0
48.0
48.0
49.0
47.0
41.0
34.0
28.0
24.0
20.0
16.0
6.0
1.0
-3.0
-8.0
-14.0
-23.0
-32.0
-44.0
-50.0
-50.0
-50.0
-55.0
-61.0
-62.0
-63.0
-64.0
-61.0
-64.0
-62.0
-57.0
-51.0
-40.0
-35.0
-31.0
-27.0
-18.0
-10.0
-5.0
-4.0
-7.0
-16.0
-27.0
-45.0
-62.0
-77.0
-88.0
-91.0
-93.0
-93.0
-100.0
-103.0
-104.0
-102.0
-99.0
-96.0
-98.0
-98.0
-100.0
-101.0
-104.0
-108.0
-110.0
-110.0
-101.0
-73.0
-14.0
75.0
193.0
316.0
393.0
392.0
315.0
191.0
150.0
-50.0
-132.0
-189.0
-221.0
-219.0
-187.0
-152.0
-141.0
-144.0
-153.0
-161.0
-162.0
-167.0
-166.0
-165.0
-166.0
-168.0
-169.0
-170.0
-171.0
-170.0
-168.0
-167.0
-168.0
-169.0
-171.0
-167.0
-161.0
-155.0
-150.0
-143.0
-136.0
-127.0
-121.0
-116.0
-108.0
-96.0
-81.0
-66.0
-55.0
-49.0
-40.0
-24.0
-10.0
6.0
16.0
23.0
34.0
44.0
47.0
59.0
62.0
66.0
72.0
76.0
76.0
72.0
70.0
69.0
66.0
62.0
53.0
44.0
37.0
37.0
33.0
29.0
20.0
10.0
4.0
2.0
-4.0
-15.0
-23.0
-26.0
-39.0
-48.0
-54.0
-55.0
-57.0
-58.0
-61.0
-66.0
-71.0
-73.0
-72.0
-71.0
-67.0
-61.0
-51.0
-38.0
-28.0
-18.0
-14.0
-8.0
-5.0
0.0
2.0
-1.0
-4.0
-33.0
-52.0
-64.0
-74.0
-79.0
-78.0
-80.0
-80.0
-76.0
-77.0
-79.0
-78.0
-76.0
-71.0
-72.0
-76.0
-80.0
-80.0
-79.0
-77.0
-80.0
-82.0
-68.0
-23.0
-5.0
150.0
262.0
366.0
428.0
411.0
323.0
198.0
62.0
-59.0
-156.0
-216.0
-235.0
-218.0
-181.0
-146.0
-125.0
-122.0
-133.0
-142.0
-149.0
-148.0
-146.0
-147.0
-152.0
-154.0
-160.0
-161.0
-159.0
-158.0
-156.0
-156.0
-155.0
-151.0
-150.0
-148.0
-148.0
-145.0
-137.0
-128.0
-123.0
-119.0
-114.0
-108.0
-99.0
-87.0
-78.0
-72.0
-64.0
-53.0
-49.0
-39.0
-30.0
-23.0
-7.0
6.0
17.0
27.0
33.0
37.0
43.0
48.0
57.0
65.0
69.0
75.0
74.0
73.0
71.0
66.0
61.0
60.0
58.0
57.0
49.0
46.0
28.0
21.0
16.0
11.0
2.0
-3.0
-8.0
-17.0
-23.0
-31.0
-40.0
-48.0
-51.0
-50.0
-50.0
-54.0
-61.0
-65.0
-64.0
-62.0
-60.0
-57.0
-58.0
-59.0
-60.0
-50.0
-42.0
-36.0
-28.0
-19.0
-10.0
-2.0
1.0
-3.0
-7.0
-10.0
-13.0
-23.0
-37.0
-55.0
-72.0
-80.0
-82.0
-85.0
-87.0
-92.0
-90.0
-87.0
-86.0
-86.0
-91.0
-98.0
-97.0
-95.0
-92.0
-90.0
-94.0
-100.0
-104.0
-110.0
-106.0
-87.0
-41.0
25.0
116.0
222.0
322.0
388.0
381.0
313.0
208.0
93.0
-17.0
-116.0
-145.0
-249.0
-258.0
-227.0
-189.0
-161.0
-153.0
-157.0
-166.0
-171.0
-177.0
-180.0
-181.0
-181.0
-180.0
-180.0
-182.0
-188.0
-194.0
-196.0
-196.0
-192.0
-191.0
-190.0
-190.0
-190.0
-186.0
-185.0
-182.0
-179.0
-174.0
-167.0
-161.0
-155.0
-151.0
-144.0
-135.0
-122.0
-111.0
-104.0
-96.0
-88.0
-79.0
-71.0
-62.0
-54.0
-43.0
-29.0
-16.0
-4.0
-1.0
7.0
13.0
22.0
29.0
31.0
35.0
35.0
34.0
33.0
31.0
25.0
22.0
16.0
12.0
9.0
7.0
-1.0
-12.0
-23.0
-27.0
-31.0
-33.0
-38.0
-49.0
-53.0
-69.0
-75.0
-79.0
-84.0
-87.0
-88.0
-88.0
-90.0
-93.0
-97.0
-100.0
-100.0
-95.0
-86.0
-80.0
-72.0
-67.0
-59.0
-51.0
-41.0
-37.0
-33.0
-33.0
-35.0
-34.0
-47.0
-64.0
-83.0
-98.0
-110.0
-114.0
-117.0
-117.0
-118.0
-120.0
-120.0
-119.0
-119.0
-118.0
-119.0
-118.0
-120.0
-122.0
-124.0
-127.0
-126.0
-128.0
-128.0
-126.0
-124.0
-67.0
5.0
105.0
228.0
335.0
385.0
354.0
254.0
127.0
-2.0
-109.0
-189.0
-239.0
-259.0
-241.0
-208.0
-180.0
-170.0
-171.0
-179.0
-186.0
-188.0
-190.0
-189.0
-190.0
-191.0
-194.0
-198.0
-203.0
-203.0
-202.0
-202.0
-201.0
-203.0
-208.0
-211.0
-209.0
-207.0
-202.0
-198.0
-198.0
-199.0
-198.0
-191.0
-184.0
-179.0
-170.0
-163.0
-153.0
-149.0
-133.0
-127.0
-117.0
-107.0
-91.0
-77.0
-68.0
-56.0
-50.0
-38.0
-24.0
-13.0
-3.0
5.0
15.0
24.0
31.0
34.0
35.0
33.0
35.0
37.0
42.0
38.0
35.0
25.0
19.0
16.0
14.0
9.0
2.0
-4.0
-11.0
-12.0
-17.0
-25.0
-33.0
-41.0
-45.0
-50.0
-56.0
-64.0
-75.0
-77.0
-78.0
-79.0
-83.0
-84.0
-86.0
-85.0
-84.0
-84.0
-80.0
-74.0
-62.0
-50.0
-41.0
-37.0
-37.0
-37.0
-35.0
-33.0
-33.0
-41.0
-58.0
-73.0
-90.0
-105.0
-114.0
-118.0
-117.0
-114.0
-113.0
-113.0
-115.0
-125.0
-129.0
-126.0
-120.0
-117.0
-115.0
-115.0
-116.0
-116.0
-120.0
-124.0
-129.0
-116.0
-81.0
-19.0
59.0
151.0
255.0
340.0
368.0
308.0
184.0
39.0
-84.0
-117.0
-223.0
-246.0
-237.0
-211.0
-176.0
-156.0
-149.0
-155.0
-170.0
-178.0
-181.0
-178.0
-174.0
-175.0
-177.0
-181.0
-180.0
-185.0
-184.0
-185.0
-188.0
-190.0
-185.0
-181.0
-179.0
-179.0
-177.0
-171.0
-164.0
-155.0
-150.0
-143.0
-135.0
-127.0
-119.0
-114.0
-105.0
-98.0
-85.0
-69.0
-53.0
-44.0
-38.0
-30.0
-18.0
-4.0
7.0
18.0
22.0
26.0
38.0
45.0
47.0
52.0
53.0
56.0
55.0
48.0
41.0
36.0
33.0
28.0
23.0
19.0
10.0
2.0
-3.0
-12.0
-21.0
-29.0
-35.0
-38.0
-45.0
-49.0
-52.0
-69.0
-78.0
-85.0
-90.0
-91.0
-92.0
-94.0
-92.0
-92.0
-96.0
-101.0
-104.0
-100.0
-88.0
-76.0
-70.0
-63.0
-55.0
-45.0
-33.0
-29.0
-26.0
-29.0
-33.0
-35.0
-58.0
-78.0
-94.0
-104.0
-105.0
-107.0
-104.0
-104.0
-105.0
-107.0
-106.0
-106.0
-105.0
-105.0
-105.0
-101.0
-100.0
-100.0
-105.0
-111.0
-120.0
-117.0
-108.0
-83.0
-73.0
32.0
121.0
228.0
331.0
387.0
363.0
274.0
150.0
24.0
-81.0
-165.0
-228.0
-264.0
-260.0
-228.0
-191.0
-165.0
-159.0
-162.0
-169.0
-171.0
-173.0
-175.0
-176.0
-178.0
-179.0
-182.0
-188.0
-187.0
-188.0
-183.0
-180.0
-179.0
-181.0
-185.0
-185.0
-181.0
-175.0
-169.0
-167.0
-163.0
-157.0
-149.0
-143.0
-137.0
-133.0
-123.0
-113.0
-101.0
-97.0
-84.0
-77.0
-67.0
-55.0
-43.0
-34.0
-23.0
-15.0
-5.0
3.0
11.0
15.0
20.0
27.0
34.0
42.0
42.0
39.0
35.0
33.0
32.0
33.0
33.0
26.0
24.0
14.0
6.0
-5.0
-15.0
-22.0
-25.0
-27.0
-33.0
-41.0
-57.0
-67.0
-71.0
-75.0
-75.0
-82.0
-88.0
-93.0
-93.0
-95.0
-96.0
-96.0
-97.0
-98.0
-96.0
-96.0
-90.0
-84.0
-76.0
-63.0
-51.0
-42.0
-37.0
-36.0
-35.0
-38.0
-41.0
-47.0
-61.0
-78.0
-92.0
-106.0
-114.0
-125.0
-127.0
-129.0
-125.0
-123.0
-124.0
-127.0
-129.0
-131.0
-130.0
-129.0
-133.0
-134.0
-131.0
-136.0
-139.0
-141.0
-120.0
-66.0
25.0
139.0
262.0
354.0
373.0
303.0
183.0
42.0
-83.0
-177.0
-241.0
-271.0
-267.0
-260.0
-204.0
-186.0
-183.0
-191.0
-201.0
-204.0
-206.0
-204.0
-205.0
-210.0
-216.0
-218.0
-217.0
-214.0
-212.0
-213.0
-217.0
-220.0
-221.0
-219.0
-219.0
-217.0
-216.0
-211.0
-209.0
-202.0
-197.0
-193.0
-185.0
-178.0
-166.0
-155.0
-149.0
-139.0
-128.0
-117.0
-103.0
-92.0
-76.0
-63.0
-51.0
-42.0
-35.0
-28.0
-19.0
-7.0
4.0
11.0
12.0
13.0
14.0
15.0
13.0
10.0
9.0
8.0
7.0
2.0
-6.0
-18.0
-26.0
-30.0
-33.0
-41.0
-52.0
-60.0
-66.0
-70.0
-77.0
-86.0
-92.0
-93.0
-92.0
-94.0
-96.0
-101.0
-104.0
-105.0
-104.0
-102.0
-96.0
-88.0
-75.0
-66.0
-61.0
-60.0
-56.0
-49.0
-46.0
-48.0
-61.0
-79.0
-98.0
-112.0
-124.0
-131.0
-133.0
-131.0
-129.0
-127.0
-127.0
-130.0
-134.0
-136.0
-133.0
-130.0
-127.0
-128.0
-129.0
-135.0
-136.0
-138.0
-142.0
-144.0
-139.0
-115.0
-60.0
16.0
119.0
237.0
340.0
389.0
363.0
275.0
244.0
44.0
-54.0
-134.0
-202.0
-238.0
-239.0
-212.0
-180.0
-160.0
-161.0
-170.0
-180.0
-187.0
-188.0
-185.0
-182.0
-185.0
-193.0
-198.0
-201.0
-201.0
-200.0
-200.0
-203.0
-205.0
-206.0
-205.0
-207.0
-207.0
-208.0
-204.0
-202.0
-197.0
-194.0
-192.0
-191.0
-182.0
-171.0
-159.0
-149.0
-140.0
-133.0
-128.0
-117.0
-103.0
-91.0
-79.0
-63.0
-47.0
-41.0
-22.0
-14.0
-6.0
7.0
20.0
26.0
31.0
32.0
33.0
38.0
40.0
35.0
36.0
33.0
34.0
34.0
29.0
22.0
15.0
10.0
8.0
7.0
3.0
-4.0
-6.0
-22.0
-29.0
-35.0
-44.0
-51.0
-55.0
-56.0
-56.0
-60.0
-68.0
-74.0
-77.0
-72.0
-70.0
-70.0
-70.0
-66.0
-55.0
-47.0
-40.0
-38.0
-35.0
-31.0
-24.0
-23.0
-28.0
-40.0
-58.0
-75.0
-90.0
-102.0
-111.0
-110.0
-110.0
-109.0
-112.0
-117.0
-118.0
-116.0
-109.0
-108.0
-107.0
-111.0
-112.0
-113.0
-112.0
-116.0
-120.0
-120.0
-118.0
-50.0
28.0
135.0
256.0
355.0
389.0
341.0
234.0
107.0
-5.0
-91.0
-154.0
-202.0
-225.0
-213.0
-180.0
-150.0
-137.0
-143.0
-153.0
-158.0
-158.0
-157.0
-158.0
-157.0
-164.0
-166.0
-167.0
-168.0
-171.0
-169.0
-169.0
-168.0
-165.0
-166.0
-171.0
-171.0
-166.0
-159.0
-151.0
-147.0
-143.0
-138.0
-128.0
-116.0
-108.0
-100.0
-89.0
-77.0
-72.0
-52.0
-47.0
-40.0
-31.0
-15.0
0.0
12.0
23.0
29.0
35.0
43.0
52.0
57.0
64.0
69.0
72.0
70.0
69.0
63.0
59.0
56.0
55.0
54.0
46.0
43.0
28.0
19.0
14.0
11.0
6.0
-2.0
-11.0
-13.0
-19.0
-25.0
-36.0
-44.0
-52.0
-57.0
-60.0
-65.0
-71.0
-78.0
-80.0
-81.0
-82.0
-87.0
-89.0
-88.0
-87.0
-79.0
-72.0
-68.0
-60.0
-48.0
-37.0
-27.0
-20.0
-18.0
-18.0
-22.0
-25.0
-30.0
-42.0
-55.0
-71.0
-82.0
-89.0
-94.0
-97.0
-96.0
-96.0
-94.0
-93.0
-92.0
-93.0
-95.0
-97.0
-97.0
-94.0
-93.0
-93.0
-94.0
-97.0
-98.0
-100.0
-89.0
-53.0
8.0
82.0
168.0
263.0
348.0
390.0
363.0
274.0
149.0
22.0
-87.0
-117.0
-228.0
-249.0
-235.0
-204.0
-174.0
-156.0
-147.0
-150.0
-156.0
-162.0
-167.0
-170.0
-170.0
-168.0
-165.0
-169.0
-174.0
-178.0
-179.0
-177.0
-175.0
-177.0
-176.0
-174.0
-173.0
-170.0
-168.0
-167.0
-162.0
-152.0
-146.0
-135.0
-131.0
-129.0
-122.0
-114.0
-106.0
-91.0
-82.0
-73.0
-67.0
-58.0
-48.0
-42.0
-33.0
-21.0
-8.0
5.0
15.0
18.0
26.0
31.0
37.0
43.0
48.0
51.0
49.0
53.0
55.0
52.0
44.0
38.0
33.0
32.0
30.0
23.0
16.0
5.0
-4.0
-8.0
-13.0
-23.0
-28.0
-37.0
-40.0
-50.0
-58.0
-64.0
-69.0
-72.0
-73.0
-74.0
-78.0
-81.0
-83.0
-80.0
-81.0
-76.0
-74.0
-68.0
-59.0
-48.0
-41.0
-36.0
-32.0
-24.0
-15.0
-10.0
-14.0
-16.0
-38.0
-53.0
-69.0
-85.0
-92.0
-96.0
-96.0
-95.0
-93.0
-96.0
-99.0
-103.0
-101.0
-98.0
-95.0
-96.0
-104.0
-105.0
-103.0
-101.0
-100.0
-106.0
-110.0
-104.0
-100.0
-24.0
52.0
150.0
261.0
358.0
400.0
371.0
278.0
167.0
53.0
-54.0
-145.0
-217.0
-253.0
-243.0
-206.0
-170.0
-152.0
-153.0
-169.0
-179.0
-182.0
-177.0
-175.0
-174.0
-180.0
-185.0
-190.0
-193.0
-191.0
-191.0
-190.0
-191.0
-189.0
-190.0
-196.0
-200.0
-198.0
-192.0
-185.0
-181.0
-179.0
-176.0
-172.0
-164.0
-154.0
-147.0
-138.0
-130.0
-126.0
-111.0
-102.0
-94.0
-82.0
-68.0
-53.0
-39.0
-28.0
-19.0
-12.0
-2.0
5.0
13.0
19.0
25.0
31.0
35.0
35.0
35.0
29.0
27.0
28.0
29.0
27.0
24.0
11.0
4.0
-1.0
-6.0
-11.0
-18.0
-23.0
-28.0
-34.0
-41.0
-49.0
-60.0
-66.0
-70.0
-71.0
-72.0
-75.0
-83.0
-90.0
-92.0
-92.0
-89.0
-89.0
-88.0
-85.0
-75.0
-67.0
-60.0
-54.0
-52.0
-47.0
-39.0
-33.0
-32.0
-34.0
-45.0
-55.0
-67.0
-80.0
-94.0
-104.0
-115.0
-118.0
-117.0
-115.0
-114.0
-119.0
-122.0
-119.0
-118.0
-116.0
-117.0
-120.0
-122.0
-121.0
-117.0
-117.0
-120.0
-123.0
-130.0
-127.0
-105.0
-56.0
12.0
108.0
218.0
321.0
389.0
378.0
304.0
196.0
77.0
-20.0
-93.0
-114.0
-210.0
-232.0
-218.0
-184.0
-156.0
-149.0
-158.0
-171.0
-180.0
-181.0
-182.0
-184.0
-184.0
-186.0
-186.0
-188.0
-189.0
-195.0
-200.0
-202.0
-204.0
-203.0
-200.0
-200.0
-200.0
-200.0
-198.0
-197.0
-195.0
-192.0
-187.0
-177.0
-169.0
-163.0
-157.0
-152.0
-141.0
-128.0
-113.0
-101.0
-89.0
-81.0
-69.0
-56.0
-45.0
-35.0
-22.0
-8.0
7.0
11.0
23.0
26.0
32.0
35.0
39.0
42.0
45.0
43.0
41.0
38.0
36.0
30.0
26.0
20.0
17.0
13.0
9.0
1.0
-6.0
-12.0
-16.0
-19.0
-23.0
-29.0
-31.0
-44.0
-49.0
-55.0
-63.0
-65.0
-65.0
-62.0
-63.0
-64.0
-71.0
-72.0
-69.0
-59.0
-51.0
-44.0
-41.0
-39.0
-35.0
-31.0
-27.0
-24.0
-24.0
-24.0
-33.0
-37.0
-64.0
-84.0
-96.0
-103.0
-104.0
-101.0
-99.0
-100.0
-102.0
-103.0
-104.0
-105.0
-105.0
-103.0
-99.0
-95.0
-93.0
-95.0
-100.0
-105.0
-109.0
-108.0
-93.0
-58.0
-42.0
98.0
209.0
323.0
396.0
394.0
325.0
227.0
120.0
24.0
-63.0
-142.0
-193.0
-206.0
-183.0
-146.0
-123.0
-122.0
-132.0
-144.0
-149.0
-152.0
-152.0
-155.0
-153.0
-155.0
-154.0
-159.0
-164.0
-169.0
-167.0
-167.0
-165.0
-166.0
-168.0
-173.0
-171.0
-169.0
-165.0
-163.0
-159.0
-155.0
-148.0
-141.0
-139.0
-134.0
-123.0
-110.0
-98.0
-83.0
-78.0
-63.0
-54.0
-44.0
-32.0
-21.0
-9.0
3.0
16.0
26.0
38.0
45.0
50.0
57.0
67.0
75.0
80.0
79.0
76.0
73.0
72.0
73.0
75.0
76.0
70.0
68.0
61.0
57.0
53.0
49.0
43.0
37.0
33.0
29.0
23.0
15.0
5.0
-5.0
-9.0
-12.0
-17.0
-24.0
-29.0
-37.0
-39.0
-43.0
-46.0
-48.0
-48.0
-45.0
-44.0
-35.0
-32.0
-28.0
-20.0
-11.0
-5.0
2.0
2.0
2.0
-1.0
-9.0
-23.0
-41.0
-60.0
-72.0
-80.0
-80.0
-83.0
-86.0
-86.0
-85.0
-85.0
-85.0
-88.0
-89.0
-92.0
-93.0
-93.0
-93.0
-91.0
-90.0
-87.0
-89.0
-94.0
-92.0
-72.0
-25.0
45.0
125.0
211.0
302.0
368.0
383.0
315.0
195.0
60.0
-56.0
-137.0
-182.0
-191.0
-184.0
-157.0
-130.0
-118.0
-122.0
-124.0
-128.0
-131.0
-134.0
-135.0
-136.0
-136.0
-138.0
-141.0
-143.0
-143.0
-142.0
-143.0
-149.0
-151.0
-153.0
-148.0
-143.0
-137.0
-136.0
-132.0
-126.0
-118.0
-111.0
-104.0
-97.0
-84.0
-70.0
-58.0
-52.0
-42.0
-34.0
-21.0
-8.0
7.0
21.0
31.0
42.0
50.0
56.0
58.0
66.0
73.0
80.0
83.0
87.0
85.0
79.0
77.0
76.0
74.0
70.0
63.0
58.0
54.0
50.0
43.0
34.0
27.0
21.0
17.0
10.0
-4.0
-9.0
-16.0
-24.0
-30.0
-37.0
-47.0
-52.0
-63.0
-65.0
-66.0
-69.0
-69.0
-68.0
-65.0
-68.0
-71.0
-76.0
-77.0
-68.0
-56.0
-44.0
-34.0
-23.0
-16.0
-8.0
-5.0
-6.0
-13.0
-21.0
-34.0
-47.0
-52.0
-75.0
-88.0
-95.0
-94.0
-91.0
-90.0
-89.0
-90.0
-89.0
-86.0
-87.0
-91.0
-94.0
-94.0
-89.0
-85.0
-88.0
-93.0
-99.0
-100.0
-84.0
-41.0
27.0
120.0
152.0
332.0
403.0
401.0
325.0
197.0
58.0
-64.0
-158.0
-224.0
-248.0
-237.0
-203.0
-167.0
-151.0
-150.0
-156.0
-162.0
-166.0
-169.0
-171.0
-173.0
-174.0
-172.0
-169.0
-169.0
-170.0
-174.0
-176.0
-178.0
-175.0
-174.0
-171.0
-167.0
-163.0
-161.0
-160.0
-161.0
-154.0
-146.0
-135.0
-124.0
-119.0
-117.0
-113.0
-106.0
-94.0
-81.0
-70.0
-59.0
-56.0
-43.0
-34.0
-26.0
-17.0
-7.0
4.0
16.0
23.0
30.0
33.0
34.0
38.0
44.0
52.0
51.0
53.0
48.0
45.0
40.0
34.0
29.0
25.0
20.0
19.0
18.0
4.0
-5.0
-16.0
-22.0
-27.0
-32.0
-39.0
-46.0
-54.0
-61.0
-64.0
-68.0
-72.0
-79.0
-79.0
-81.0
-80.0
-78.0
-81.0
-85.0
-86.0
-83.0
-77.0
-70.0
-68.0
-57.0
-49.0
-44.0
-36.0
-30.0
-23.0
-17.0
-14.0
-16.0
-22.0
-37.0
-54.0
-69.0
-77.0
-84.0
-89.0
-95.0
-99.0
-101.0
-102.0
-100.0
-103.0
-102.0
-103.0
-104.0
-101.0
-99.0
-101.0
-106.0
-103.0
-104.0
-103.0
-106.0
-110.0
-103.0
-69.0
-3.0
88.0
192.0
299.0
374.0
377.0
310.0
186.0
51.0
-69.0
-163.0
-227.0
-250.0
-252.0
-206.0
-177.0
-162.0
-161.0
-169.0
-177.0
-182.0
-182.0
-179.0
-179.0
-186.0
-193.0
-198.0
-199.0
-196.0
-196.0
-195.0
-201.0
-203.0
-200.0
-199.0
-199.0
-194.0
-189.0
-187.0
-183.0
-179.0
-173.0
-165.0
-156.0
-145.0
-133.0
-125.0
-115.0
-105.0
-95.0
-85.0
-77.0
-68.0
-58.0
-43.0
-29.0
-15.0
-8.0
0.0
8.0
22.0
32.0
35.0
35.0
38.0
40.0
43.0
44.0
42.0
41.0
36.0
34.0
29.0
21.0
10.0
0.0
-6.0
-9.0
-13.0
-21.0
-29.0
-37.0
-44.0
-53.0
-62.0
-68.0
-72.0
-70.0
-69.0
-75.0
-79.0
-82.0
-85.0
-82.0
-76.0
-70.0
-64.0
-55.0
-44.0
-38.0
-35.0
-29.0
-24.0
-21.0
-20.0
-27.0
-43.0
-63.0
-86.0
-96.0
-106.0
-112.0
-114.0
-114.0
-110.0
-111.0
-113.0
-118.0
-119.0
-120.0
-114.0
-111.0
-112.0
-114.0
-116.0
-120.0
-121.0
-124.0
-127.0
-112.0
-68.0
3.0
94.0
201.0
307.0
375.0
373.0
289.0
255.0
27.0
-98.0
-189.0
-239.0
-240.0
-209.0
-171.0
-150.0
-146.0
-157.0
-170.0
-181.0
-184.0
-182.0
-180.0
-178.0
-182.0
-191.0
-194.0
-195.0
-198.0
-198.0
-198.0
-199.0
-199.0
-198.0
-198.0
-198.0
-200.0
-197.0
-191.0
-183.0
-179.0
-177.0
-171.0
-165.0
-156.0
-144.0
-136.0
-126.0
-114.0
-102.0
-87.0
-79.0
-67.0
-60.0
-48.0
-29.0
-16.0
-12.0
3.0
14.0
21.0
32.0
36.0
40.0
45.0
47.0
49.0
49.0
48.0
42.0
38.0
37.0
33.0
29.0
20.0
15.0
10.0
7.0
-3.0
-7.0
-15.0
-19.0
-20.0
-25.0
-35.0
-47.0
-56.0
-61.0
-61.0
-59.0
-63.0
-68.0
-72.0
-73.0
-74.0
-73.0
-73.0
-71.0
-63.0
-53.0
-40.0
-32.0
-28.0
-22.0
-18.0
-16.0
-13.0
-12.0
-18.0
-32.0
-48.0
-64.0
-78.0
-87.0
-92.0
-92.0
-92.0
-93.0
-93.0
-95.0
-96.0
-95.0
-92.0
-89.0
-90.0
-96.0
-99.0
-100.0
-99.0
-99.0
-101.0
-101.0
-100.0
-42.0
24.0
109.0
208.0
305.0
370.0
377.0
298.0
174.0
35.0
-84.0
-169.0
-221.0
-240.0
-226.0
-189.0
-160.0
-144.0
-147.0
-157.0
-166.0
-169.0
-167.0
-166.0
-166.0
-170.0
-177.0
-181.0
-180.0
-180.0
-179.0
-178.0
-180.0
-178.0
-177.0
-179.0
-179.0
-178.0
-172.0
-164.0
-159.0
-152.0
-150.0
-148.0
-142.0
-128.0
-116.0
-108.0
-98.0
-95.0
-79.0
-69.0
-62.0
-56.0
-45.0
-33.0
-21.0
-6.0
2.0
9.0
11.0
19.0
29.0
39.0
45.0
48.0
48.0
50.0
53.0
48.0
46.0
45.0
40.0
38.0
37.0
28.0
18.0
10.0
3.0
-2.0
-10.0
-13.0
-19.0
-25.0
-29.0
-35.0
-45.0
-56.0
-64.0
-68.0
-72.0
-74.0
-83.0
-90.0
-98.0
-98.0
-96.0
-91.0
-92.0
-92.0
-97.0
-95.0
-90.0
-85.0
-74.0
-64.0
-53.0
-42.0
-36.0
-32.0
-31.0
-35.0
-35.0
-35.0
-46.0
-60.0
-74.0
-90.0
-100.0
-105.0
-109.0
-112.0
-113.0
-106.0
-103.0
-100.0
-103.0
-107.0
-109.0
-108.0
-104.0
-102.0
-101.0
-102.0
-107.0
-111.0
-114.0
-102.0
-66.0
4.0
98.0
209.0
317.0
389.0
410.0
367.0
268.0
145.0
17.0
-22.0
-192.0
-251.0
-259.0
-233.0
-198.0
-169.0
-156.0
-159.0
-165.0
-172.0
-180.0
-184.0
-185.0
-183.0
-181.0
-180.0
-184.0
-189.0
-193.0
-194.0
-193.0
-194.0
-192.0
-191.0
-189.0
-183.0
-183.0
-183.0
-184.0
-181.0
-175.0
-165.0
-157.0
-153.0
-146.0
-143.0
-135.0
-127.0
-115.0
-110.0
-103.0
-94.0
-84.0
-74.0
-68.0
-61.0
-50.0
-38.0
-22.0
-18.0
-2.0
-2.0
3.0
10.0
19.0
24.0
25.0
30.0
32.0
32.0
29.0
27.0
21.0
16.0
13.0
12.0
8.0
1.0
-7.0
-16.0
-25.0
-30.0
-34.0
-40.0
-43.0
-56.0
-63.0
-69.0
-75.0
-77.0
-84.0
-90.0
-93.0
-94.0
-96.0
-100.0
-103.0
-105.0
-102.0
-99.0
-94.0
-89.0
-81.0
-73.0
-64.0
-57.0
-49.0
-44.0
-41.0
-39.0
-37.0
-37.0
-44.0
-60.0
-75.0
-94.0
-102.0
-111.0
-118.0
-121.0
-122.0
-121.0
-121.0
-118.0
-121.0
-123.0
-122.0
-121.0
-122.0
-125.0
-132.0
-130.0
-129.0
-130.0
-131.0
-139.0
-135.0
-109.0
-53.0
32.0
143.0
259.0
350.0
377.0
320.0
206.0
71.0
-57.0
-161.0
-233.0
-269.0
-265.0
-240.0
-209.0
-185.0
-178.0
-178.0
-184.0
-190.0
-191.0
-194.0
-194.0
-197.0
-200.0
-203.0
-207.0
-210.0
-207.0
-206.0
-210.0
-213.0
-221.0
-219.0
-215.0
-210.0
-206.0
-207.0
-205.0
-201.0
-197.0
-192.0
-187.0
-180.0
-170.0
-166.0
-148.0
