0.0 2.942175 1.630406 2.267685 2.267686 2.9421740000000005 2.267685 1.5931960000000003 2.9421749999999998 1.9490460000000003 2.267685 2.267685 2.2304740000000005 2.267685 1.9490450000000001 2.5863250000000004 2.267685 1.274556 2.267685 2.5863250000000004 1.9490450000000001 1.949047 2.9421740000000005 1.3117670000000001 1.9862560000000002 2.904964 2.586326 1.630406 2.267685 2.5863240000000003 1.274556 2.6235350000000004 2.5863250000000004 2.267685 1.9490450000000001 2.267685 2.9049640000000005 2.2304740000000005 2.267685 2.9421749999999998 2.2676860000000003 1.9118350000000004 2.267685 1.949046 1.949046 2.267685 1.630406 1.630407 3.2236030000000007 1.9490450000000001 2.5863250000000004 1.949046 1.9118350000000004 2.3048960000000003 2.9793850000000006 2.5863250000000004 3.2980240000000007 1.630406 2.5863250000000004 1.5931950000000001 1.9490460000000003 2.586325 2.267685 1.5931950000000001 2.3048960000000003 2.5863250000000004 2.5863240000000003 1.3117670000000001 1.5931960000000003 2.9421740000000005 3.260814 1.274556 1.9490460000000003 2.5863250000000004 1.5931950000000001 2.267685 1.5931950000000001 2.6235350000000004 2.6235350000000004 2.267685 1.3117670000000001 1.5931950000000001 2.9049640000000005 2.267685 1.274556 2.623536 2.267685 2.2676860000000003 2.942175 1.9862570000000002 2.9421740000000005 1.949046 1.9490450000000001 1.9118340000000003 2.267685 1.630406 2.3048960000000003 1.949046 2.9421740000000005 1.9118350000000004 2.9793850000000006 2.5863240000000003 1.630406 1.9490460000000003 2.623536 2.5863250000000004 1.9118350000000004 2.6235350000000004 1.3117670000000001 2.5863250000000004 1.311768 1.9490460000000003 2.2676860000000003 2.3048960000000003 1.9862560000000002 3.2236040000000004 1.630406 2.267685 2.5863250000000004 1.5931960000000003 2.5863250000000004 2.267685 2.6235359999999996 1.3117670000000001 2.267685 0.993128 1.9118350000000004 2.5863250000000004 1.274556 1.9490450000000001 0.955917 2.5863250000000004 1.9490460000000003 2.267685 1.9490450000000001 1.9490460000000003 1.9490460000000003 1.9118350000000004 2.304895 2.9421740000000005 1.274556 1.949046 1.2745570000000002 2.9049630000000004 1.630406 1.311768 2.5863250000000004 1.9118350000000004 1.5931960000000003 2.6235350000000004 1.9490460000000003 2.5863250000000004 1.9490450000000001 2.2676860000000003 1.630406 1.630407 1.9490450000000001 2.267685 1.5931960000000003 1.274556 1.9118350000000004 1.9490450000000001 1.9490450000000001 2.9049640000000005 1.3117670000000001 1.274556 2.6235350000000004 1.274556 2.6235350000000004 1.949046 2.9421749999999998 2.267685 2.5863250000000004 2.9049650000000002 1.630406 1.630406 1.630406 2.6235350000000004 1.9490460000000003 2.267685 1.274556 2.267685 2.267685 2.267685 2.2676860000000003 0.993128 0.993128 2.979386 1.9490460000000003 1.9490460000000003 1.9490450000000001 2.2676860000000003 2.267685 1.3117670000000001 1.3117670000000001 2.267686 2.267685 1.630406 1.9118350000000004 1.9118350000000004 2.9421749999999998 2.267685 1.9490460000000003 1.9118350000000004 2.267685 1.9118350000000004 2.9049650000000002 1.3117670000000001 1.5931960000000003 2.9421749999999998 2.267685 1.311768 1.5931960000000003 1.5931960000000003 3.579454 1.2745570000000002 2.586325 2.267685 1.949047 2.6235359999999996 1.9118350000000004 1.9118350000000004 2.267685 1.9490450000000001 0.955917 2.267685 2.586325 1.9490460000000003 2.267685 1.949046 2.267685 1.630406 1.949046 2.9049630000000004 2.5863240000000003 1.9490460000000003 1.949046 2.267687 1.949045 1.6304060000000002 1.9118340000000003 2.9049640000000005 0.674489 1.6304060000000002 1.6676170000000001 1.9118350000000004 2.9049640000000005 2.9049640000000005 1.9118350000000004 2.267685 1.9490460000000003 2.267685 1.5931960000000003 1.5931960000000003 2.6235350000000004 2.9421740000000005 2.2676860000000003 2.5863240000000003 1.9490450000000001 2.9049650000000002 1.630406 1.9490460000000003 1.593196 1.5931960000000003 1.5931950000000001 1.3117670000000001 1.9862560000000002 1.630406 3.579454 1.9118350000000004 2.267685 1.274556 2.9049650000000002 3.2236040000000004 1.9490450000000001 1.5931960000000003 2.2676860000000003 2.267686 2.5863240000000003 2.2676860000000003 1.3117670000000001 2.9793850000000006 2.2676860000000003 3.260814 1.9490450000000001 0.955917 1.9490470000000002 2.9421749999999998 1.949046 1.630406 2.3048960000000003 2.6235359999999996 2.267685 2.267685 2.267685 2.267685 1.5931950000000001 1.5931960000000003 2.267685 3.579453 2.267685 1.949046 2.267685 2.267686 1.2745570000000002 2.6235350000000004 1.3117670000000001 1.630406 1.5931960000000003 1.3117670000000001 2.5863250000000004 2.267685 1.3117670000000001 1.9490450000000001 1.3117670000000001 1.9490460000000003 1.5931960000000003 2.6235350000000004 2.9049650000000002 1.3117670000000001 2.267685 1.274556 1.9118350000000004 1.630407 1.9862560000000002 1.9490450000000001 2.267685 2.9421749999999998 1.6304070000000002 1.9490450000000001 2.2676860000000003 2.267685 2.5863250000000004 2.267685 1.5931960000000003 1.630407 2.304897 2.9793850000000006 1.911836 1.5931960000000003 1.9490460000000003 1.5931960000000003 1.9118350000000004 1.5931950000000001 2.267685 1.9490460000000003 2.267685 1.9118350000000004 1.949046 2.2676860000000003 2.267685 1.9490460000000003 1.2745570000000002 2.267685 2.5863250000000004 2.2304740000000005 1.630406 2.9049650000000002 1.9490450000000001 1.9490460000000003 1.949046 2.2676860000000003 1.3117670000000001 1.9490460000000003 1.9490450000000001 2.267685 2.5863250000000004 1.3117670000000001 1.9490460000000003 1.9490460000000003 1.9118350000000004 1.9490460000000003 1.9490450000000001 1.3117670000000001 2.267685 2.9049650000000002 1.949046 0.955917 2.9421749999999998 2.3048960000000003 1.9490460000000003 1.9490460000000003 2.6235359999999996 2.267685 1.3117670000000001 1.949047 2.267687 0.674489 0.993128 2.267685 2.267685 1.9118350000000004 2.267685 1.630406 2.9793850000000006 2.9421749999999998 2.267685 1.949046 2.9421749999999998 1.5931960000000003 2.6235350000000004 2.9049650000000002 1.9490460000000003 1.274556 3.298025 1.5931960000000003 1.274556 3.616664 1.5931960000000003 1.9118350000000004 1.9118350000000004 1.5931950000000001 1.5931960000000003 2.267685 2.267685 2.3048960000000003 2.9421749999999998 2.904964 1.630406 1.9490460000000003 1.949046 1.986257 2.9421749999999998 2.267685 1.2745570000000002 1.986257 3.260814 2.586325 2.6235350000000004 1.274556 3.2236040000000004 1.630406 1.9490450000000001 2.5863250000000004 2.5863250000000004 1.3117670000000001 1.9490450000000001 2.6235359999999996 1.630406 1.5931960000000003 3.298025 1.9118350000000004 2.586325 1.9118350000000004 3.616664 2.5863250000000004 1.5931960000000003 3.260814 2.267685 1.274556 3.653875 3.260814 1.9118350000000004 2.267685 2.2676860000000003 1.949046 2.5863250000000004 1.274556 2.5863250000000004 2.267685 1.5931960000000003 1.9490460000000003 2.267684 2.6235359999999996 1.274556 2.3048960000000003 1.274556 2.267686 2.267685 2.267685 0.993128 2.9049640000000005 1.3117670000000001 1.630406 1.630406 1.274556 1.630407 1.348978 1.3117670000000001 3.5422430000000005 1.274556 1.274556 2.3048970000000004 0.637278 2.6235359999999996 2.267685 2.267685 1.9490450000000001 2.5863250000000004 1.5931960000000003 2.2676860000000003 2.267685 1.2745570000000002 2.6235350000000004 2.2676860000000003 1.911836 1.9118350000000004 1.9490450000000001 2.2676860000000003 2.3048960000000003 1.9118350000000004 2.6235359999999996 1.9118350000000004 1.9490450000000001 1.5931960000000003 2.230475 2.6235359999999996 1.630406 2.5863240000000003 2.2676860000000003 1.9118350000000004 2.267685 1.630406 1.5931960000000003 1.630407 1.911836 2.267685 2.2304740000000005 1.949046 2.267685 0.993128 2.6235360000000005 2.9049650000000002 1.9490450000000001 2.267685 1.5931960000000003 2.2676860000000003 1.9490450000000001 2.6235350000000004 1.9118350000000004 1.949046 1.9490450000000001 1.630406 1.949046 2.2676860000000003 2.267685 1.9490450000000001 1.5931950000000001 1.949046 1.9490450000000001 1.274556 1.949046 1.9118350000000004 1.630408 1.9490450000000001 1.5931960000000003 1.9862560000000002 2.6235350000000004 1.5931960000000003 1.9118350000000004 1.2745570000000002 1.5931960000000003 1.2745570000000002 2.3048970000000004 1.2745570000000002 3.2236040000000004 2.2676860000000003 1.630406 2.267685 1.3117670000000001 2.586325 1.9118350000000004 2.623536 1.9490460000000003 1.9118350000000004 1.9490450000000001 1.630406 1.630406 1.9490450000000001 2.6235359999999996 1.630406 1.274556 1.9490460000000003 0.993128 1.9490460000000003 2.3048960000000003 2.9421740000000005 2.267685 2.6235350000000004 1.274556 1.5931960000000003 1.9118350000000004 1.9862560000000002 1.949046 1.274556 1.949046 1.6676170000000001 2.267685 2.267685 2.9793850000000006 0.993128 3.616664 1.9490460000000003 1.274556 1.5931950000000001 2.586325 2.586325 1.9118350000000004 1.9118350000000004 1.3117670000000001 1.3117670000000001 0.993128 2.2676860000000003 1.630406 0.955917 1.630406 0.993128 2.586325 2.267685 2.2304740000000005 1.949046 1.9490450000000001 2.267685 1.274556 2.3048960000000003 2.267685 1.9490460000000003 2.2676860000000003 1.9490460000000003 1.630406 1.9118350000000004 2.267685 2.5863240000000003 1.9118350000000004 1.630406 1.949046 2.267685 1.5931960000000003 2.2676860000000003 1.274556 2.586325 1.630406 2.5863240000000003 0.955917 1.949046 2.586325 1.9490460000000003 2.904964 1.9490460000000003 1.9490450000000001 2.9421740000000005 2.9049650000000002 2.267685 2.3048960000000003 1.630406 1.2745570000000002 2.9049640000000005 2.5863240000000003 0.955917 2.942176 2.267685 2.267685 1.9490460000000003 1.3117670000000001 1.3117670000000001 2.6235350000000004 1.3117670000000001 0.993128 1.274556 2.267685 3.5794520000000007 0.637278 1.6304070000000002 1.630406 1.2745570000000002 1.630406 2.5863250000000004 1.9490460000000003 0.637278 0.993128 1.986257 0.993128 2.2676860000000003 1.9490460000000003 1.630407 0.637278 2.5863250000000004 2.267685 1.630407 0.993128 2.5863250000000004 2.2304740000000005 1.3117670000000001 1.986257 1.911836 1.9118350000000004 1.9490450000000001 1.6304070000000002 2.5863250000000004 1.630406 2.267685 0.955917 2.942175 2.267685 1.3117670000000001 2.5863250000000004 1.9490450000000001 1.9490460000000003 2.267685 1.630406 2.267685 1.3117670000000001 1.274556 2.6607460000000005 2.267685 0.955917 1.274556 2.6235350000000004 1.6304070000000002 1.630407 1.2745570000000002 1.949046 1.5931960000000003 1.5931960000000003 1.949046 2.267685 2.267685 1.630407 1.630406 1.9490450000000001 1.593197 2.5863250000000004 1.3117670000000001 1.949047 3.260815 1.630406 2.2676860000000003 2.2676860000000003 2.5863250000000004 1.5931960000000003 2.267685 1.274556 1.5931960000000003 2.3048960000000003 0.637278 3.616664 2.267685 1.3117670000000001 0.955917 1.2745570000000002 2.267685 2.267685 0.955917 2.267685 1.9490450000000001 0.955917 2.3048960000000003 2.6235350000000004 1.311768 2.267685 2.3048960000000003 2.6235350000000004 1.9490460000000003 1.9490460000000003 1.9118350000000004 2.267685 1.6304070000000002 1.3117670000000001 2.267685 2.267685 2.3048960000000003 1.9490450000000001 1.9490460000000003 2.5863250000000004 0.955917 1.949046 1.311768 1.5931960000000003 1.949046 2.9049650000000002 1.630406 2.3048960000000003 1.9490450000000001 1.9490460000000003 2.6607460000000005 1.9490450000000001 2.3421070000000004 1.311768 1.6676170000000001 1.9862560000000002 1.3117670000000001 2.6235360000000005 1.5931960000000003 1.5931960000000003 2.9049640000000005 1.3117670000000001 2.230475 2.3048960000000003 1.5931950000000001 3.298025 1.9118350000000004 1.9490460000000003 1.3117670000000001 2.2676860000000003 1.9490460000000003 1.9490450000000001 1.6304070000000002 1.5931960000000003 2.230475 3.298025 1.9118350000000004 3.260815 2.586326 1.9490460000000003 2.267685 1.630406 1.9490460000000003 2.2676860000000003 1.630406 1.5931960000000003 2.9421749999999998 1.9490450000000001 2.3048960000000003 1.949046 2.942175 0.993128 1.2745570000000002 1.9490460000000003 1.274556 2.267685 2.230475 2.267685 2.267685 1.9490460000000003 1.3117670000000001 2.267685 2.9049650000000002 1.274556 2.9049640000000005 2.9049640000000005 1.5931960000000003 1.9490460000000003 2.2676860000000003 2.9421749999999998 2.586325 1.3117670000000001 2.9421749999999998 2.267685 2.6235350000000004 2.586326 2.9421749999999998 1.5931950000000001 2.5863250000000004 1.9490450000000001 0.955917 0.993128 1.9490460000000003 1.9490460000000003 1.9118350000000004 2.267685 1.6304070000000002 2.3048960000000003 1.949046 1.949046 2.267685 2.2676860000000003 3.579454 2.267685 1.949046 1.949046 2.2676860000000003 1.2745570000000002 2.267685 0.955917 2.9421749999999998 2.5863250000000004 1.630406 2.5863250000000004 1.5931960000000003 1.5931960000000003 1.630406 1.9490450000000001 2.5863240000000003 1.9490450000000001 2.267684 2.9049640000000005 1.9490450000000001 1.9490450000000001 2.3048960000000003 0.993128 1.986257 2.6235350000000004 1.630406 1.630406 1.2745570000000002 1.9490460000000003 1.986257 1.630407 1.9490460000000003 1.9490460000000003 1.6304070000000002 1.3117670000000001 1.9490450000000001 1.630406 1.3117670000000001 1.9490450000000001 2.267685 0.955917 1.630407 0.955917 1.9490460000000003 2.267685 2.6235350000000004 1.9490450000000001 2.9421749999999998 1.630406 1.3117670000000001 0.993128 1.9490460000000003 1.6304070000000002 1.9490460000000003 1.630406 2.5863250000000004 0.955917 2.6235359999999996 2.9793850000000006 1.3117670000000001 2.2676860000000003 1.2745570000000002 2.9421749999999998 2.2676860000000003 1.5931960000000003 1.9118350000000004 2.3048960000000003 2.6235350000000004 2.3048960000000003 2.6607460000000005 1.949046 2.267685 1.3117670000000001 1.6676170000000001 2.3048960000000003 1.667618 1.9862560000000002 1.9862570000000002 2.586326 1.6304070000000002 1.5931960000000003 1.630407 1.9490450000000001 0.993128 2.9049640000000005 3.260816 1.274556 2.5863240000000003 1.949046 1.5931960000000003 0.955917 1.949046 2.2676860000000003 2.5863250000000004 1.5931960000000003 
0.0 
0.0 
0.0 3.2608130000000006 3.935303 3.9353020000000005 3.6166630000000004 2.5863240000000003 4.928432000000001 2.904964 2.9793840000000005 4.291154000000001 4.291153 2.3048950000000006 2.2676840000000005 2.5863240000000003 0.0 
0.0 
0.0 1.03034 0.67449 1.34898 1.03034 1.348979 0.993129 1.348979 1.03034 0.35585 0.7117 0.7117 1.348979 0.993129 1.348979 1.348979 1.03034 0.993129 1.34898 1.348979 1.348979 1.34898 1.704829 1.34898 1.348979 1.03034 1.348979 1.348979 1.03034 1.348979 1.03034 1.03034 0.67449 1.348979 1.348979 1.348979 0.35585 1.03034 0.993129 1.03034 0.67449 1.03034 0.7117 0.67449 1.34898 1.348979 0.993129 0.993129 0.993129 0.993129 1.34898 1.34898 1.34898 1.70483 1.704829 1.34898 1.38619 1.03034 1.348979 1.34898 0.67449 0.7117 0.993129 1.824839 1.34898 0.35585 1.03034 1.34898 1.70483 0.0 1.70483 0.993129 1.348979 1.348979 0.67449 1.03034 1.348979 0.993129 1.03034 1.03034 0.7117 0.35585 1.348979 0.993129 1.70483 1.348979 0.67449 0.0 1.03034 1.03034 1.03034 0.35585 1.348979 0.993129 0.35585 0.35585 1.348979 1.34898 1.34898 1.34898 1.348979 1.34898 1.34898 1.34898 1.34898 1.348979 1.34898 1.34898 1.34898 0.993129 1.34898 1.348979 1.824839 0.67449 1.03034 1.34898 0.993129 0.35585 1.03034 1.34898 1.03034 1.348979 1.34898 0.993129 0.35585 1.38619 1.704829 1.348979 1.03034 1.348979 0.7117 0.7117 1.348979 1.348979 1.34898 1.348979 1.34898 1.34898 1.34898 0.993129 1.70483 1.348979 0.993129 1.34898 1.348979 1.824839 1.348979 0.993129 1.824839 1.70483 1.348979 1.34898 0.35585 0.35585 1.03034 1.348979 1.348979 3.4552450000000006 1.03034 0.67449 1.34898 1.34898 1.348979 1.34898 1.03034 1.03034 1.70483 1.70483 1.348979 0.0 0.0 0.993129 1.824839 1.03034 0.993129 1.348979 1.70483 1.824839 1.348979 1.34898 1.03034 1.03034 1.03034 1.34898 1.34898 1.03034 1.348979 1.348979 1.348979 1.03034 1.34898 1.348979 1.03034 1.03034 1.348979 1.348979 0.7117 1.348979 1.824839 0.993129 1.348979 1.03034 1.348979 1.03034 1.03034 0.7117 0.7117 1.34898 0.7117 1.03034 0.993129 1.70483 1.03034 0.993129 
0.0 5.755945 0.0 3.136607 3.293828 6.430434 0.0 3.4924570000000004 1.0303390000000001 0.0 0.7117 7.423562 0.0 0.0 0.0 0.0 5.7187339999999995 0.318639 2.817968 3.811096 4.166946 4.324167 2.6607469999999998 0.0 0.0 3.455246 4.129736 0.0 0.35585 5.7559439999999995 0.35585 7.067712 4.166947 0.0 0.0 0.0 0.318639 2.3421070000000004 0.0 1.7048290000000001 0.0 0.0 0.0 0.0 6.111795000000001 5.317295 4.129736 0.0 7.4235619999999995 0.0 4.166947 3.016598 0.0 0.0 0.35585 0.0 0.0 0.0 7.3863520000000005 3.372448 7.4235619999999995 3.173818 7.067712 0.0 0.0 3.848307 0.0 4.4855860000000005 4.961445 3.7738860000000005 0.0 0.0 1.348979 0.35585 1.03034 1.03034 6.749074 0.0 0.7117 0.0 5.474516 0.0 0.0 3.492457 5.081455 0.7117 0.35585 0.318639 3.173818 1.03034 0.0 0.0 0.318639 4.324167 0.0 0.0 0.0 2.817968 1.0303390000000001 
0.0 0.0 0.35585 8.060842000000001 7.460775000000001 0.0 9.447032000000002 0.0 7.340765000000001 0.0 20.958924000000003 0.35585 0.0 8.884174999999999 
0.0 0.0 0.0 0.0 0.0 0.0 0.0 0.0 0.0 0.0 0.0 0.0 0.0 0.0 
0.0 
0.0 0.318639 0.0 0.993129 0.0 0.67449 0.0 0.318639 0.318639 0.637278 0.0 0.993129 0.318639 2.942175 
0.0 0.0 1.944848 2.975187 3.6496760000000004 13.882812000000001 0.0 0.0 9.720064000000002 10.870414000000002 1.468988 1.468989 4.642804000000001 
0.0 
0.0 0.67449 0.67449 2.5365390000000003 2.8551780000000004 2.892389 1.824839 0.67449 0.993129 1.348979 0.67449 0.993129 0.993129 1.824839 1.34898 1.824839 0.993129 1.824839 2.8551780000000004 3.529668 1.824839 1.34898 0.993129 1.824839 0.993129 0.993129 0.993129 1.824839 2.8179670000000003 2.143478 0.67449 0.67449 0.67449 0.67449 1.824839 2.8551780000000004 0.67449 1.824839 1.03034 0.67449 1.824839 3.529667 3.492457 0.67449 0.993129 1.34898 1.34898 0.67449 0.993129 0.67449 1.824839 0.993129 1.34898 1.824839 2.180689 2.5365390000000003 1.6676190000000002 1.34898 1.34898 1.34898 0.993129 0.993129 3.1738170000000006 0.993129 0.35585 1.03034 1.03034 0.993129 1.348979 2.180689 1.34898 1.824839 1.824839 1.824839 0.993129 0.993129 2.499328 2.5365390000000003 3.2110279999999998 0.993129 0.35585 0.993129 2.499328 2.180689 1.34898 2.143478 0.993129 0.35585 2.499328 2.462117 2.499328 0.67449 0.67449 2.462117 1.6676190000000002 0.35585 1.824839 1.824839 1.824839 1.34898 1.824839 1.824839 0.993129 1.34898 1.824839 2.180689 0.67449 2.5365390000000003 0.993129 1.34898 1.03034 2.180689 1.34898 1.03034 2.180689 1.34898 0.67449 0.993129 0.993129 1.34898 3.2110279999999998 1.824839 1.348979 0.67449 1.03034 1.34898 1.348979 1.34898 3.2110279999999998 1.34898 3.968317 0.993129 0.993129 0.993129 1.34898 1.34898 1.824839 0.993129 1.03034 2.5365390000000003 1.34898 1.824839 2.892389 0.993129 1.34898 0.993129 0.67449 0.67449 1.70483 1.34898 1.34898 1.34898 0.993129 0.674489 0.67449 1.824839 2.143478 1.34898 0.67449 0.67449 1.34898 1.34898 2.180689 0.67449 2.180689 0.993129 1.34898 0.67449 2.8551780000000004 0.0 0.993129 1.824839 0.67449 1.34898 3.173818 1.824839 1.34898 1.824839 0.35585 1.34898 0.67449 3.173818 2.8551780000000004 1.824839 1.824839 1.824839 3.566878 2.143478 1.34898 1.34898 2.5365390000000003 1.34898 1.34898 0.67449 0.993129 1.824839 2.180689 3.848307 0.35585 1.34898 2.892389 1.34898 0.67449 0.67449 2.8551780000000004 2.5365390000000003 1.03034 1.34898 2.180689 1.03034 2.5365390000000003 0.993129 1.34898 2.5365390000000003 2.8551780000000004 
0.0 6.504854000000002 0.0 0.0 1.468988 5.118665000000001 0.0 1.468988 0.0 0.0 0.0 5.793154000000001 0.35585 0.47586 2.180688 0.0 5.474515000000001 0.0 0.0 1.150349 1.468988 1.150349 0.67449 0.0 0.0 1.150349 1.150349 0.0 0.0 4.444176000000001 0.0 5.793154000000001 1.468988 0.0 0.0 0.35585 0.0 1.150349 1.468988 0.35585 0.0 0.67449 0.0 0.0 0.0 1.150349 6.1490040000000015 0.0 5.081454000000001 0.0 1.150349 1.787627 0.0 0.0 0.35585 0.0 0.0 0.0 5.118665000000001 1.468988 5.474515000000001 1.468988 5.830365000000001 0.83171 0.0 0.35585 0.0 1.468988 1.468988 1.468988 0.35585 0.35585 0.318639 0.0 0.0 0.318639 0.318639 4.800026000000001 0.0 0.0 0.0 5.793155000000001 0.0 1.468988 6.1490040000000015 0.35585 0.0 0.47586 1.468988 0.0 0.0 0.0 0.0 0.0 1.150349 0.0 0.0 1.468988 0.0 5.598724000000001 
0.0 
0.0 0.318639 0.0 0.0 0.67449 0.67449 0.67449 0.0 0.0 0.0 1.15035 0.0 1.15035 1.1503489999999998 